908.1,914.294,920.489,926.683,932.877,939.072,945.266,951.46,957.655,963.849,970.044,976.238,982.432,988.627,994.821,1001.015,1007.21,1013.404,1019.598,1025.793,1031.987,1038.181,1044.376,1050.57,1056.764,1062.959,1069.153,1075.348,1081.542,1087.736,1093.931,1100.125,1106.319,1112.514,1118.708,1124.902,1131.097,1137.291,1143.485,1149.68,1155.874,1162.069,1168.263,1174.457,1180.652,1186.846,1193.04,1199.235,1205.429,1211.623,1217.818,1224.012,1230.206,1236.401,1242.595,1248.789,1254.984,1261.178,1267.373,1273.567,1279.761,1285.956,1292.15,1298.344,1304.539,1310.733,1316.927,1323.122,1329.316,1335.51,1341.705,1347.899,1354.094,1360.288,1366.482,1372.677,1378.871,1385.065,1391.26,1397.454,1403.648,1409.843,1416.037,1422.231,1428.426,1434.62,1440.814,1447.009,1453.203,1459.398,1465.592,1471.786,1477.981,1484.175,1490.369,1496.564,1502.758,1508.952,1515.147,1521.341,1527.535,1533.73,1539.924,1546.119,1552.313,1558.507,1564.702,1570.896,1577.09,1583.285,1589.479,1595.673,1601.868,1608.062,1614.256,1620.451,1626.645,1632.839,1639.034,1645.228,1651.423,1657.617,1663.811,1670.006,1676.2,Temperature
-0.03794648796614714,-0.03214410808375963,-0.026341728201372115,-0.020539348318984598,-0.014736968436597084,-0.00893458855420957,-0.0031322086718220538,0.0026701712105679657,0.006595282308462276,0.00807232660533176,0.00655069207961199,0.0021197454170487975,-0.004437779490129308,-0.012195032358342434,-0.020369094407086705,-0.027234294840825266,-0.03173003680528972,-0.034391005134959234,-0.03534788502581768,-0.034725632816852196,-0.03265586484427417,-0.02937129381736671,-0.024849080675039558,-0.019142593819913192,-0.012666344726777773,-0.006102942248120635,0.0005753803516186073,0.0073192887176249544,0.014330186471446524,0.02253932236193921,0.0330272183044693,0.04589975901048715,0.059845821333038764,0.07298165098182377,0.08372939265793457,0.09134927755684757,0.09565374322203646,0.09667685598812568,0.09480405163894612,0.09015133684914016,0.08255124705362378,0.07207149289406088,0.059195273179316756,0.04459931651085956,0.029932791471090667,0.01735936650039117,0.008201799309362922,0.002404707820907786,-0.0010968657709555618,-0.003371293006452467,-0.004933089820803961,-0.005812289840599015,-0.005903864467488582,-0.004930466550925604,-0.002640318452940591,0.0008068189395233388,0.00539506533133484,0.011204083453322366,0.018086790663107685,0.025999012060575154,0.034727073069725674,0.04385783949944386,0.05297367955035003,0.06149286102073039,0.06881221270754719,0.07456475951933574,0.0786417000651131,0.08134823129673366,0.08304072536499978,0.08451362575291435,0.08574419790145564,0.08658838570892731,0.08648118266368715,0.08520477028078126,0.08260540190129698,0.07889887429708993,0.0741768143460841,0.06853141162965024,0.06204863919584189,0.054616184116213856,0.046188507604677034,0.03689634442870945,0.027230840913477584,0.017900789038757452,0.00993988843405949,0.0036378643859907352,-0.0007488377084109341,-0.0037678354845108726,-0.005874101474465678,-0.007533795290862807,-0.008813021191002614,-0.009913173418042284,-0.010966808826811477,-0.011883399150877614,-0.012727775865935159,-0.013504936314499836,-0.014208007475899835,-0.01486148034777298,-0.015475229035840768,-0.015943103554170855,-0.016450059166652837,-0.016746121565887055,-0.016913244489592725,-0.017063271946675923,-0.017139866603949044,-0.01706624623632327,-0.01686060492191261,-0.016568253685887054,-0.016141389530669178,-0.015606580097569548,-0.014971421883120298,-0.01425574348497123,-0.013414662604387928,-0.012609902891526737,-0.0117631413856707,-0.010934011254481759,-0.009999052682187197,-0.009039268169726966,-0.008123966328643116,-0.007208664487561077,-0.006293362646479037,-0.005378060805396998,-0.0044627589643149584,-0.003547457123232919,-0.002632155282150878,31.875
-0.03775114471809921,-0.03191173819694778,-0.026072331675796347,-0.020232925154644914,-0.014393518633493481,-0.008554112112342048,-0.002714705591190615,0.0031247009299633253,0.006989440430040336,0.008415074484166908,0.006823121800053372,0.0023628642944886723,-0.0043756488187394575,-0.012279157945660184,-0.020643206154956146,-0.02757653837828862,-0.03207792206313638,-0.034827018587848715,-0.035840466984505756,-0.03521163574577947,-0.033091354227910756,-0.029763846749065494,-0.02518455408684052,-0.019466597582088095,-0.01296901700410391,-0.006286372677316124,0.0005294704761514141,0.007355359812145437,0.014488188633017023,0.02287156630889492,0.033483672061372795,0.04653689871852801,0.0606418526089254,0.07390215885799731,0.08469064836018447,0.09232865258727546,0.09664652537339898,0.0976062989930483,0.09562515176017698,0.0908756475215113,0.0832445959506991,0.0727085081613026,0.059675706622788684,0.0449622465156985,0.030202356461762708,0.017520250152352656,0.008334760482884382,0.0024943628314890633,-0.0010260470426847323,-0.003327849701031004,-0.0048795865439305265,-0.005745841525996301,-0.0058818579369230685,-0.004959569144279528,-0.002683951217500229,0.0008428824241191844,0.00547255343857478,0.011323292151692902,0.01829037316377412,0.026266674167156615,0.03505207228417346,0.04424827364334508,0.05337748467134321,0.06186569731212638,0.06917082350632212,0.07484342001580785,0.07882403216079767,0.08141492870201886,0.0829843934657735,0.08422791256305912,0.0852748879127391,0.0858732857246893,0.08558554855664827,0.08415309846458538,0.08146784463852447,0.07771157063437469,0.0730264271619396,0.06745780938556416,0.06108334628265465,0.053733387629368995,0.04538917207500807,0.03618515371182109,0.026720600110121794,0.0175766261851134,0.009679761308707008,0.003489489490924246,-0.0008831631928645424,-0.003865663364717751,-0.005957560730959015,-0.0075664108046134895,-0.008836163329113371,-0.009917490752503404,-0.010969993058128524,-0.011854414221873447,-0.01274139190709071,-0.013527217912042365,-0.014261832328135347,-0.014872935646006185,-0.015443594523653159,-0.01592788626055452,-0.01643925818786663,-0.016760460086714755,-0.016885756691996864,-0.0170254455663085,-0.017052404017601507,-0.01691640789652761,-0.016708423377168984,-0.01643299538658756,-0.015993300746481462,-0.015479872780736486,-0.014840187823336124,-0.01408950384370268,-0.013254495235187713,-0.012455020922481486,-0.011619795888868375,-0.010834429787250296,-0.009971367075382744,-0.008986943989706293,-0.008100125012145498,-0.0072133060345864735,-0.006326487057027449,-0.005439668079468425,-0.0045528491019094005,-0.003666030124350376,-0.002779211146791352,31.8125
-0.03700567912531201,-0.031219746130041554,-0.0254338131347711,-0.019647880139500647,-0.01386194714423019,-0.008076014148959733,-0.002290081153689283,0.0034958518415836226,0.007336580062824997,0.00865611168160958,0.0069591458030402575,0.002417571156931774,-0.004412002477627789,-0.012432387564690436,-0.020897441823746855,-0.027990615169807734,-0.032575243060680666,-0.03528603185898017,-0.03634576792893804,-0.03568562767272028,-0.03350031936942449,-0.03015805042065029,-0.025502213868468824,-0.01964476795696244,-0.013066867359840924,-0.006351285649766502,0.0005184406233527613,0.007425650923055518,0.014673120781597703,0.023148434340991633,0.033925144216373396,0.047165113188140484,0.061526998109932673,0.0749903259697006,0.08599787281605863,0.0937879486850978,0.09816272219412664,0.09917789773517857,0.09728024735191151,0.09248359301626904,0.08464944502722632,0.07390423345598811,0.060667177300648294,0.0456578860280823,0.03063776971486668,0.017790466577188475,0.008436616650702937,0.002469830909508762,-0.0010822272999222806,-0.0034177918887215324,-0.0050216303997866136,-0.005913878846818809,-0.0060167594687696845,-0.004972628063249906,-0.0026135777896923104,0.0009227455129264991,0.005627408031763055,0.01161885570915597,0.018647156142728435,0.026739063286811974,0.03568040441084882,0.044950439299573104,0.05414815711011833,0.06269089144844259,0.0699644749029772,0.07564038329545934,0.07960480378466803,0.08211827131624089,0.0835119637568117,0.084525797530073,0.08529217079268123,0.0854224728611304,0.0846383323679982,0.08264132333364464,0.07944879784102617,0.0752949072581999,0.0701524770565015,0.06433586619932696,0.05782392386781074,0.05054136725638181,0.04243331819806702,0.03351662680000623,0.024430552481139296,0.015721638370395013,0.008264041435038255,0.0025603751365912576,-0.0014098872657693445,-0.004108482121800564,-0.006039854426409425,-0.007502991829473826,-0.008639397243609567,-0.009675149723066837,-0.010703915241834089,-0.011515460901167819,-0.012243895645574954,-0.012844340123671678,-0.013481632340087181,-0.014045744622595712,-0.014546268779367912,-0.014963315714536537,-0.015409531514721858,-0.015665308543633207,-0.01578348993114953,-0.015949236919014002,-0.015993614294581217,-0.015884631274730495,-0.015695481360282766,-0.01549660396852487,-0.015081035826977894,-0.014608025371719076,-0.013955890951429899,-0.013265131527093096,-0.01251679411990477,-0.011760221595941962,-0.010948173960791592,-0.010191601436828823,-0.009360980696465553,-0.00843255607335565,-0.007590622245631928,-0.006748688417910038,-0.0059067545901881485,-0.00506482076246626,-0.004222886934744371,-0.00338095310702248,-0.0025390192793005913,31.875
-0.0365601918024829,-0.030672944207766173,-0.024785696613049447,-0.018898449018332722,-0.013011201423615996,-0.007123953828899271,-0.0012367062341825455,0.0046505413605366945,0.008527896574174432,0.009846759831714187,0.008008270433701501,0.003162542075290623,-0.004059188492512368,-0.012531878061210944,-0.021362863339055023,-0.028726281546588506,-0.03345620011628638,-0.036325230439456284,-0.03750859541323006,-0.036962921072492765,-0.03475840238652355,-0.031221712427471085,-0.026479290500053584,-0.02050378100816183,-0.013665073104391648,-0.0066603744016906245,0.0005143660881258194,0.007711643921780124,0.01517818990134102,0.023980771173484173,0.035171928645353435,0.04882858400404399,0.06360385084845212,0.07736682352644823,0.08857476663140992,0.09656461303235048,0.10100521764315626,0.1019789270127067,0.099878656525924,0.09484054846982408,0.08680982517443363,0.0757547504365912,0.06212642845098685,0.04672425144944883,0.03135401839405611,0.018257920083463428,0.00874289255803297,0.0027043206059732487,-0.0009322923433427486,-0.003306085552340297,-0.004848345920006301,-0.0057433400880347865,-0.00583097023346921,-0.004829865104165694,-0.002439964889156015,0.001232908905508962,0.006040726939279317,0.012018912160802602,0.01912665553833742,0.02725323837122773,0.03628280101244453,0.045633458134217805,0.0548603530658576,0.06335877645043832,0.07059250763793974,0.07616135469919304,0.07995318905115859,0.08222060123300201,0.08336636749661092,0.0840096450309589,0.08432287713205426,0.08399805020255498,0.08255251912301448,0.08007974053708673,0.07635281755784484,0.07189396064848025,0.06660321773471162,0.060725503944929086,0.05425944817543945,0.047126717471810756,0.03924111234529042,0.03075248473487317,0.02206136311336159,0.013840543908151365,0.006872830381336192,0.0015681548381196353,-0.0020514065670844852,-0.0045797910250142135,-0.006304694869194065,-0.007674732148414588,-0.008692104938304288,-0.009619483467603699,-0.010493458200529373,-0.011207789375156471,-0.011860448582653869,-0.012480589088417522,-0.01299572244062687,-0.013465761715815287,-0.013951077025080487,-0.014288548577527989,-0.014706818301148769,-0.014930031212495908,-0.01502840444010021,-0.015131057173171225,-0.015135253581444312,-0.015045550161031283,-0.014863636554867264,-0.01461470506212327,-0.014219730251754666,-0.013745965452389708,-0.013164852928519419,-0.012499909185912136,-0.011742644461295783,-0.01105694026983888,-0.010304301288995572,-0.009579818407225818,-0.008823453902206038,-0.0079647275042926,-0.00716603688600644,-0.006367346267722085,-0.00556865564943773,-0.004769965031153374,-0.0039712744128690206,-0.003172583794584665,-0.0023738931763003096,31.8125
-0.034767774460568335,-0.02898261803301179,-0.023197461605455244,-0.017412305177898695,-0.01162714875034215,-0.0058419923227856045,-5.683589522905569e-05,0.005728320532330055,0.009567926218918497,0.010712734836041592,0.008709631785447845,0.0036347804399217997,-0.0038608434281056157,-0.01262341795985843,-0.021705157992858663,-0.029264000069356352,-0.03417197035013647,-0.03712999046166493,-0.03833044537450064,-0.037762385502007126,-0.03554706581067402,-0.032013189675837155,-0.027140201942264006,-0.0209244315932087,-0.013935121744748872,-0.006731328899840768,0.0006734559902323134,0.008047408852607657,0.01571208847144387,0.02474620259760339,0.0362483484745212,0.05023722670997665,0.06530913809328236,0.07935252027963116,0.09074547350516762,0.09876835438111263,0.10320392559073195,0.10409945905500259,0.10192418207533428,0.09669877955476643,0.08838973283982289,0.07703358568229701,0.06315713815217895,0.04746009055418981,0.03179225736722251,0.018452941781347567,0.008816804884011207,0.0027715626413093897,-0.0008337241477435515,-0.0031620358447079625,-0.004698581296043111,-0.005579440565446425,-0.005637927209882066,-0.00455114406836015,-0.0021176308753700804,0.0015511082323260335,0.006332653378583559,0.012450033991460394,0.01961853543296951,0.02778505559264973,0.036719349936153584,0.0459824097082921,0.05511846330138263,0.06353591571905381,0.07057302353122816,0.07598953187821748,0.07958584350377795,0.081655270248387,0.08250302690347668,0.08285390305072084,0.08283078819691195,0.08210771213246658,0.0804687293775074,0.07784961476776063,0.07416030640180934,0.06963377210763758,0.06442625927105779,0.05874567464914615,0.0525117720441165,0.04557065927490691,0.03794092412511703,0.029754669606111207,0.02134582708365042,0.013402539435551461,0.006640182475997404,0.0014663617600700282,-0.0021524879056807828,-0.004682090631886307,-0.006396510453973242,-0.007744731194915189,-0.008821384135405458,-0.009768317475326874,-0.010607207560197344,-0.011338294141398671,-0.012009076198569543,-0.012647914909872965,-0.01318580418642188,-0.01368434603031294,-0.014086296273388985,-0.014414783872481204,-0.014778585439808275,-0.014931307070006143,-0.014984545979785158,-0.01503108595389661,-0.014982599762685922,-0.01481255962090949,-0.014555137151983201,-0.014286502780202777,-0.013828394301698821,-0.013324253557891888,-0.012744393686507828,-0.01210659859886623,-0.01135358181774262,-0.01065432575822894,-0.009904891144809648,-0.009209569828561767,-0.008442591055204724,-0.007605985659972372,-0.006821561511647562,-0.0060371373633245325,-0.005252713215001504,-0.004468289066678474,-0.003683864918355444,-0.0028994407700324142,-0.002115016621709386,31.875
-0.036388223034206385,-0.03096248510093564,-0.025536747167664898,-0.020111009234394156,-0.01468527130112341,-0.009259533367852665,-0.003833795434581927,0.0015919424986912424,0.005303231325875839,0.006629107319646729,0.005178029096705586,0.0011786564238719958,-0.004911496765105007,-0.012129074001859926,-0.01975237527142911,-0.02601092541584742,-0.030069700159950603,-0.03246582211639087,-0.033380940459411534,-0.03281758605836586,-0.030808293422186404,-0.027736827929781795,-0.023484011310099563,-0.01817514360368583,-0.012197291323388286,-0.006085992537568413,0.00018572179541353099,0.006470290988482504,0.012962895197105353,0.020612420919214714,0.030427727697920265,0.04250163119316582,0.055650424246154975,0.06805845140171916,0.07823715923085596,0.0855749784373769,0.08978860815191803,0.09086903138825697,0.08923603378714617,0.08499732523580544,0.0780214680298465,0.0683004758704212,0.05619369063585825,0.04239667714146168,0.028512589514890902,0.016537759162366855,0.007762521091559044,0.0021162762739334044,-0.0013277136249962517,-0.0036443589478909275,-0.005196931145108857,-0.006137766544156904,-0.006345338178317046,-0.005496654544498326,-0.003345724922701159,2.285118272058104e-06,0.004451959358518915,0.010041248611916343,0.01672508384170108,0.024447993771275267,0.03304219643422393,0.042082864013363405,0.051167777791065766,0.059738351670864054,0.06721432944594483,0.073249625124708,0.0776861180594003,0.08081116951413063,0.08307590389451264,0.08520741306761044,0.0873861357918897,0.08933527198656199,0.09042413878993177,0.0902698486801897,0.08866600009176065,0.08572476311060881,0.08151010759926171,0.07615160917803768,0.0696588778146259,0.061975244043072884,0.05308664747808274,0.04316205727164625,0.03266619972384811,0.022376883122835877,0.013323547747865825,0.006159598043271686,0.0010487702524297302,-0.002499777562129067,-0.005027076800169204,-0.006982509602169828,-0.00852997115499328,-0.009831828342752206,-0.011104537740471642,-0.012246424422829149,-0.013270387265030995,-0.014252120045657115,-0.015090424669843002,-0.015859429934153065,-0.016563855237477942,-0.017148669454411652,-0.017695251649762468,-0.018077082808711245,-0.018316916302593363,-0.018493539194753893,-0.01859620446025793,-0.018458718344907928,-0.018198711254731593,-0.017944597299957517,-0.01749164504425538,-0.01689470221670112,-0.016244892340434285,-0.015464834390639361,-0.014606833000617148,-0.013766828903773681,-0.012853551859905585,-0.01193644794595259,-0.010949763464417835,-0.009902252533450817,-0.008878243773010702,-0.007854235012572397,-0.006830226252134093,-0.005806217491695791,-0.0047822087312574865,-0.0037581999708191823,-0.0027341912103808798,31.3125
-0.03706220520497171,-0.03153748926908563,-0.026012773333199554,-0.020488057397313478,-0.014963341461427401,-0.009438625525541325,-0.003913909589655248,0.0016108063462332769,0.005400286381086735,0.006822849429718502,0.005402159778109696,0.0012704991180208117,-0.004898924633008714,-0.012154088624837038,-0.019836754951476868,-0.02616453960112396,-0.0302542633860988,-0.032681840183258475,-0.03357731047378883,-0.0329565539947597,-0.030984982630573865,-0.027881560692709202,-0.023589811636355033,-0.018225355199382134,-0.012228505888651185,-0.006076008917268592,0.0001874610807822588,0.006500426522433416,0.01304327298177532,0.020682864663381484,0.030485766461558064,0.042608989399188134,0.05581475872994357,0.06826150556342402,0.07848539081423161,0.08583708502059989,0.09006377889407347,0.09121623560896064,0.0895963626586815,0.08533244605378049,0.0783031281649811,0.06848658416217361,0.056354884348223,0.0425525618961821,0.02860437194582795,0.01658433664802283,0.007749409773723031,0.0020738014627320377,-0.0014153048612118356,-0.003721645407567139,-0.0052765661627601455,-0.006199071975381989,-0.006360208640269395,-0.0054769706024216476,-0.003301256586844394,4.7005345856577686e-05,0.0044438007265167135,0.010097520453049035,0.016808805902323833,0.024562944532275102,0.03318019199043749,0.04222680291998271,0.05133571043077085,0.059929675291113704,0.06743385273554432,0.07349017504548648,0.07791503705222762,0.08104128182097187,0.08327877747881952,0.08538943018129042,0.087490809078079,0.08932443809994414,0.0903256756293416,0.09002080968892096,0.08823771089278105,0.08521831718683584,0.08088071649313287,0.07548196144246848,0.069018778494233,0.06134483915712842,0.052503999066963104,0.042590933431931786,0.03216571194713154,0.02194669899983795,0.013037531412227974,0.005963446936057527,0.0009218388440452995,-0.0025472682310501943,-0.005052286945464656,-0.007000190733646847,-0.0084928271680487,-0.009861020017475611,-0.011113645848974195,-0.012185344194416215,-0.013202127976596931,-0.014135969802880618,-0.014939004869745878,-0.015716354290254267,-0.016414709620319993,-0.016967582430256513,-0.01750674805516821,-0.01788300905805419,-0.018061594797831843,-0.018222684873002697,-0.018273516705840653,-0.018167966476968857,-0.017998318606496228,-0.017731984813746528,-0.017278948862179438,-0.016719884524123405,-0.01607655410138442,-0.015297966375252057,-0.014438778439501506,-0.013604712169328643,-0.012720770381552086,-0.011805625744143887,-0.010821099210442806,-0.009760030676643423,-0.008731508593741978,-0.007702986510842351,-0.006674464427942724,-0.005645942345043096,-0.004617420262143469,-0.003588898179243842,-0.0025603760963442135,31.3125
-0.0364013646434506,-0.03092495641608111,-0.025448548188711624,-0.019972139961342138,-0.014495731733972651,-0.009019323506603165,-0.0035429152792336785,0.0019334929481382337,0.005590985711686844,0.006899376813791466,0.0054087455488315405,0.0012455477149106167,-0.005024270606639483,-0.012380362604337452,-0.0200609038599021,-0.02643083184244773,-0.03063563939608552,-0.03305020896884554,-0.033926039614183244,-0.03328802924375464,-0.03126166653144481,-0.028081432343601866,-0.0237544878290194,-0.018359309088883998,-0.012297373256797013,-0.006122041494870253,0.00014162832830843917,0.0064750947434657645,0.013075145381186612,0.020799684636504008,0.030668778781049552,0.04280457584970919,0.05605155065836244,0.06854535102743181,0.07878976811678887,0.08616936147908412,0.09041877363837744,0.09151990362217689,0.08988655509133726,0.08562668051826477,0.07856148127501426,0.0687230681004286,0.056546262996203064,0.04268111985929387,0.028722050012022722,0.01662638859843139,0.007755111946739831,0.0020538470045102114,-0.0014289051154095101,-0.003801500758823333,-0.005393557022933536,-0.006317672513796681,-0.006512134616680487,-0.005615747044728517,-0.0034457380858967726,-0.00010948559807497701,0.004375584956672482,0.010048928801234777,0.01677046426779353,0.0245645909406403,0.03320289155158063,0.04227607937742679,0.05138586904058611,0.06001475310999419,0.06746950777367368,0.07352357003340132,0.07794257099268122,0.08104181775550781,0.08330916542910075,0.08540258085678941,0.08748773266329289,0.08934597940982657,0.09026530480580064,0.08998293898625645,0.08830749717359067,0.08535139463860729,0.08106239559956513,0.07568198580598788,0.06926710992560185,0.0615578625529658,0.05265533646898706,0.042779853890672265,0.03229851597653771,0.022005804198151617,0.013021294034427942,0.005902841437262498,0.000841791810244593,-0.0027608689475156897,-0.0053144460157751264,-0.0072292289246401326,-0.008753704615496261,-0.01009395913841854,-0.011338596329253381,-0.012386092753815421,-0.013426452638342624,-0.014394684251000437,-0.015170130847682609,-0.015933937501480408,-0.016690902920348215,-0.017258503940705373,-0.017796992799472135,-0.018133616010287873,-0.01833524787503076,-0.018492042581347925,-0.018533902079966025,-0.01841190415850833,-0.018177296557052604,-0.01790025115114835,-0.017421069400946912,-0.01687527174083405,-0.016211794996422557,-0.015438513970509491,-0.014579779029868924,-0.013746587980801328,-0.012839287654785722,-0.011938151822834699,-0.010967200942335975,-0.009927111754154866,-0.008916469562573897,-0.007905827370994722,-0.006895185179415548,-0.005884542987836375,-0.0048739007962571995,-0.0038632586046780243,-0.002852616413098851,31.25
-0.0360569133123613,-0.0305982032878093,-0.025139493263257304,-0.01968078323870531,-0.014222073214153311,-0.008763363189601314,-0.003304653165049319,0.002154056859505105,0.00584227174255153,0.007088432499558476,0.00554970146996663,0.001439387179083548,-0.004816368216297259,-0.012199093401262103,-0.019901254807981952,-0.026342808104985817,-0.03042774510349645,-0.03292801186180863,-0.033797238566109694,-0.03321115438477142,-0.031200874705459944,-0.02800119515346254,-0.023687305200022536,-0.01830424347989862,-0.012265626517769,-0.006066382256849738,0.00022680486008188716,0.006555409705855083,0.013169064031646416,0.020931795315618243,0.030831076363031163,0.043040114237764604,0.056324253900476205,0.06882132225970813,0.07908753383220381,0.08649535088112993,0.09076907416751322,0.09188656330479557,0.09022844938178015,0.08589154553242116,0.07879326698298583,0.06892988963088961,0.056705522282022046,0.04281120065226909,0.028775213028329392,0.016678704074274436,0.00779898561332869,0.002112292039405142,-0.0013668662174194568,-0.0037035455874744826,-0.005292313939899232,-0.006187284564445262,-0.006319132805535061,-0.0054080440878406695,-0.0032294908270957875,0.00013220502660429162,0.004615093205158656,0.010295547953774591,0.017071759911013364,0.024863624577608774,0.033527523481408514,0.042617830285694595,0.051752722976225574,0.06040227664179077,0.06790740509409525,0.0739133085155168,0.07829031751718803,0.08135184602745424,0.08354481588353606,0.08556454422748197,0.08754893235116336,0.08919260753353345,0.0899279732343302,0.08938244449322852,0.08738094296784507,0.08414082608391878,0.07963372693253272,0.07409351226634406,0.0675273424015213,0.05985282449033203,0.05101583786125549,0.04119670683401896,0.03090175926414387,0.020869602679421013,0.012124949680661388,0.005298572449922694,0.00045091537437967855,-0.0028653444593172987,-0.005227486012091003,-0.007058496964677236,-0.008461783601261558,-0.009713055003176381,-0.010878439519915802,-0.011901454313800283,-0.0128210013087555,-0.013753798579506985,-0.014530815913273598,-0.015247302739224268,-0.01591880998457022,-0.016497442269854713,-0.017029298744017977,-0.01741808422724801,-0.0176123846967474,-0.01780646371316947,-0.0178982191048953,-0.017820870466147505,-0.01761767496470672,-0.017376032748443918,-0.016940250001015275,-0.01640408749479186,-0.015817901198979037,-0.015089197544926422,-0.014297761155232857,-0.013496150226928795,-0.012619749673215452,-0.011730935444220414,-0.01077682946624588,-0.009726243764228109,-0.008714144191002174,-0.007702044617778082,-0.006689945044553988,-0.005677845471329896,-0.004665745898105804,-0.00365364632488171,-0.002641546751657618,31.25
-0.03729755026280121,-0.03142981752255026,-0.02556208478229931,-0.019694352042048363,-0.013826619301797412,-0.00795888656154646,-0.002091153821295516,0.0037765789189579306,0.007842871954099984,0.009319315503854605,0.007808744173901804,0.0036501266570963422,-0.0027356671823850955,-0.010456148101094015,-0.01864088648058191,-0.02548209880267053,-0.029952641342380404,-0.03258823429329937,-0.03373582714652872,-0.03325427130898833,-0.03126818303260341,-0.028031578074076635,-0.02340691934751301,-0.01755568083239395,-0.01103843005677589,-0.00440515445550291,0.002385558653968704,0.00927424042845775,0.016434078178251463,0.02478355684703222,0.03542131865008519,0.048358375521161935,0.06230192478747991,0.07524159470640572,0.08569260335496919,0.0930381050308854,0.09698369726001074,0.09767254205755756,0.09554646593145258,0.09056186398953553,0.0827432411194779,0.07207154545188282,0.05907162552599742,0.04442281464519791,0.02979801492355531,0.01746684408196895,0.008598931218766544,0.0031123779132027937,-0.00013853829580709104,-0.002224189196397299,-0.003632825529755278,-0.0044464914971904836,-0.004496571246863298,-0.0033942611375709668,-0.0011014216730228547,0.002396265273705938,0.006856141077038051,0.012571983830209979,0.019287527804792058,0.026874762537231874,0.03528786892113904,0.043985086496529185,0.052605950813767614,0.060663590545873544,0.06755407119751333,0.07282955625070722,0.07647655825268873,0.07875219561065926,0.0800649454655489,0.08113404923783189,0.08195308845681776,0.08250583059421,0.08239382711166589,0.08130091297232354,0.07902456321499167,0.0757613202965754,0.07152306670834654,0.06639843978392453,0.06052606858814758,0.05371506309919475,0.045804817144528186,0.037108745184326455,0.027978783505217698,0.01893260439188224,0.011020185481635981,0.004560882480293391,-8.913243742518421e-05,-0.003404787594541506,-0.005783692603510038,-0.007616539376426522,-0.009083256887029047,-0.010445837564401879,-0.011657521604928847,-0.012641567919146005,-0.013516416339036174,-0.014422442545631539,-0.015168261413308097,-0.015810534821741905,-0.016387715832965354,-0.0168378477071873,-0.017236172469579245,-0.017511752747478997,-0.01763463476080534,-0.01767347290357351,-0.017604172124037722,-0.017340323055692164,-0.01706343625386782,-0.016685410747398537,-0.01610814721887445,-0.01543656641588006,-0.01470722350253636,-0.013859344487025882,-0.013025644694317808,-0.012136190712239267,-0.01115002645397595,-0.010175139560114147,-0.009180517278549648,-0.008206565580760161,-0.007236173328333864,-0.0062657810759093584,-0.005295388823484851,-0.004324996571060346,-0.0033546043186358405,-0.0023842120662113334,-0.001413819813786828,32.25
-0.03804107039577615,-0.03205778828998295,-0.02607450618418975,-0.02009122407839655,-0.01410794197260335,-0.00812465986681015,-0.0021413777610169507,0.0038419043447787816,0.007963332727196284,0.009465725100770464,0.007919747575624915,0.003721967290459547,-0.0028324048288117334,-0.010765147500774182,-0.019029913845725294,-0.02584420035379748,-0.030344624455356482,-0.033078717953308016,-0.034204615315677825,-0.03366459671391648,-0.031556011135577405,-0.02822890230519637,-0.023634780581992084,-0.01779596956140352,-0.011201681657135448,-0.004468884165015128,0.002403440644931773,0.00936024673542212,0.01654482217885468,0.024990154591267705,0.035748958934203746,0.04880693714002203,0.06290852612427829,0.07600211518653492,0.08654851028347581,0.0939402553943681,0.09789739446558111,0.0986208952427307,0.09644519902674474,0.09142449890026129,0.08351139910913825,0.07270490269340057,0.059560777453080506,0.04475897639975557,0.02995227916522042,0.017508681697961014,0.008546627699867854,0.0029908508468326133,-0.0002827350795601465,-0.0023954248097959783,-0.0037559027002701992,-0.004590784676620713,-0.004536525129984383,-0.0033810872896902493,-0.0010634253579392156,0.0024550097842998505,0.00698230195718368,0.01275103361486681,0.01951536550486119,0.02709854354694245,0.035577124574519836,0.04433622798438024,0.05298961625089752,0.06106719228321982,0.06795881242268166,0.0733183750906481,0.07693625422105436,0.07915194376336802,0.08041637009892276,0.0813767194881198,0.08210916659637794,0.08245652406764777,0.08210722806309301,0.08071225951148542,0.07810707847696034,0.0746423240907053,0.07021782956857106,0.06493072927478308,0.059000742110485886,0.052180469688563935,0.04441962091694785,0.03587361077839832,0.026865980478117234,0.018021214667076284,0.010306184514308765,0.004124908049660663,-0.0003684874840750681,-0.003522342671477004,-0.0058696156991504675,-0.007708854539592178,-0.00919152787566197,-0.010519437022288082,-0.011718142925494737,-0.012683407881235034,-0.013583427345281795,-0.014389538718355393,-0.015022982162435247,-0.015604334447824258,-0.01613736186776114,-0.01656705161696188,-0.016908718108374857,-0.017127509282876024,-0.017217498767280952,-0.017238130300095713,-0.0171290878028362,-0.016938529980958725,-0.01667680029420332,-0.016290367530582033,-0.01575689701732285,-0.015153071592498563,-0.014441283710387647,-0.013605014298071937,-0.012783782365378341,-0.011960238039409477,-0.010998683990242506,-0.010010516648411101,-0.008980906234287907,-0.007993057365781828,-0.006952539287255375,-0.00591202120873067,-0.004871503130205965,-0.003830985051681262,-0.002790466973156557,-0.0017499488946318524,-0.0007094308161071494,32.25
-0.03831997788538423,-0.0322044181983506,-0.026088858511316967,-0.01997329882428334,-0.013857739137249709,-0.007742179450216078,-0.0016266197631824506,0.004488939923853757,0.008682777779224627,0.01026740963616329,0.008672256251548415,0.004338059566652819,-0.0023610920683694446,-0.010519266169975177,-0.018958932744711342,-0.025933902808229964,-0.030511226082006307,-0.03331880826109769,-0.034467355452738754,-0.03403210713910269,-0.03199917260998364,-0.028676106902415247,-0.023938145369192115,-0.017974439148231176,-0.011293502637022931,-0.004493286714757901,0.002506063419271081,0.00957691183029798,0.016885959628025363,0.025401595744411972,0.0363000075347918,0.049604507952086874,0.06388190073336462,0.07714352763864188,0.0878230013050027,0.09527202891670228,0.09924517622559259,0.0999731616066051,0.09774469281417839,0.09261122785280337,0.08454745659535613,0.07363052339184109,0.06033318930550582,0.045320510548443195,0.03035914014766453,0.017756198916321835,0.008701685200816711,0.0031149973579883057,-0.00014987617577361624,-0.0022126760115514137,-0.003611302140083223,-0.004422614999354637,-0.004382707878430967,-0.0032296782334863337,-0.0008850432721414355,0.002647630623100208,0.007241114504652372,0.013063587782729914,0.019862276454134582,0.02756077042408319,0.03605306701450164,0.044813607316695286,0.053521759557784335,0.061618847820720926,0.06846918470368321,0.07369615601855582,0.07721116862820732,0.07932594114642146,0.08043718397707564,0.08115272617960444,0.08154797926169,0.08154634292148231,0.08080484304865308,0.0790226867471116,0.07616702134038429,0.07243746634797191,0.06785755989439764,0.06261611046514179,0.05679313090060674,0.05004710161509304,0.04239056788352487,0.03404437969065915,0.025397706289605047,0.01689802379095082,0.009505835924868845,0.003543935272461692,-0.0007371223131314725,-0.0037881275803550926,-0.006025270374462616,-0.007776182368110373,-0.009227951791688664,-0.010529681405472004,-0.011647315753005219,-0.012519834728943814,-0.013354550050345144,-0.014152580582308347,-0.014745061609745364,-0.015227879871652734,-0.01577315877771968,-0.016141069593945127,-0.016463148898546914,-0.01662363611120512,-0.016694921803834174,-0.016670166913515597,-0.016540700235731058,-0.016315668492666035,-0.01604318288358365,-0.01565566395649566,-0.015113825560608496,-0.014502687457643205,-0.013827354469614604,-0.01301596748553034,-0.012167392222713316,-0.011383683164019059,-0.010469794151039609,-0.009526954503619896,-0.008526045757554652,-0.007584856436156136,-0.006633083840661439,-0.005681311245168512,-0.004729538649675584,-0.0037777660541826567,-0.002825993458689729,-0.0018742208631968016,-0.000922448267703874,32.1875
-0.03822001226695051,-0.03202171692516199,-0.025823421583373474,-0.019625126241584953,-0.013426830899796436,-0.007228535558007919,-0.0010302402162193983,0.0051680551255716325,0.009433725134677027,0.010960048863770073,0.00929645278364217,0.0047806865206809716,-0.0021325741737219196,-0.01049342037975552,-0.01921330768344387,-0.026443207053486108,-0.0312549573176101,-0.034134839532209325,-0.035373842823619765,-0.03488858234779702,-0.032808875100492005,-0.02935875699547021,-0.02455118144602068,-0.01844844935244636,-0.011578823452419366,-0.004556721677980078,0.0026091028578423925,0.009820384450285609,0.017280140454758224,0.026030495926322273,0.03710759742159881,0.050618188002626255,0.0651464893046158,0.07860457400026129,0.0893987685713262,0.09694888717753383,0.10095560689883429,0.10165147938464704,0.09937069502215481,0.09415099681399822,0.08599156317860365,0.07483861037274363,0.06124794685955163,0.04599190906805067,0.030805223848456704,0.018018857424641776,0.00889140169643707,0.0032151614105808794,-9.961889794209295e-05,-0.0022194017004178845,-0.003622048974241656,-0.004473412169272933,-0.004379316914920845,-0.0031918216710638955,-0.0007862535660259221,0.002867237249756414,0.007502247976037395,0.013384939771423453,0.020278574900449167,0.02800698239383455,0.03656123572513878,0.045362532097114744,0.053995873315547664,0.0619464631891827,0.06871372826937118,0.07384827196383018,0.07720532818786308,0.07914100564676049,0.0800348238563991,0.08047655898729397,0.08056653496240612,0.08021548651732707,0.07917659803881032,0.07722070796749395,0.07423893542354212,0.07051769682062212,0.0660106253924122,0.06085274195843721,0.05510508235394708,0.04859596730131042,0.04120801582067299,0.033091429512194646,0.02468261317649133,0.016447906749026707,0.009267880791919104,0.003440053020030442,-0.0007811847772892777,-0.0038294372004826507,-0.006082020562244315,-0.007868661986536423,-0.009345547257645605,-0.010667682380090039,-0.011841421107562432,-0.012738437515368656,-0.013556550820829221,-0.01434626412656231,-0.01500483709321387,-0.015514871522752641,-0.016043725571730387,-0.016367894937988126,-0.01663011875929493,-0.016704558598420217,-0.016674865105211684,-0.016548685526843198,-0.01637011235538407,-0.016053547593657846,-0.01572083548473926,-0.01534418724010631,-0.014763550809243145,-0.014141352016416574,-0.013460306377308003,-0.01264986874744945,-0.011831670156704409,-0.011029178272515337,-0.010088993296554822,-0.00911507799058775,-0.008120466788923409,-0.00720667760850533,-0.006216712911217632,-0.0052267482139317055,-0.004236783516645779,-0.003246818819359851,-0.0022568541220739247,-0.0012668894247879984,-0.0002769247275020703,32.1875
-0.03740859811186497,-0.03121930813333046,-0.02503001815479595,-0.018840728176261444,-0.012651438197726933,-0.006462148219192422,-0.00027285824065791803,0.0059164317378791985,0.0100677581030319,0.011505154374660397,0.009726613811754051,0.005076212834328947,-0.00198733009474968,-0.010522992405030438,-0.019330482847365958,-0.026723914103827184,-0.03162126419489431,-0.03461021322394989,-0.03585428986917552,-0.03543495355139502,-0.03336572472229683,-0.029923974956932473,-0.024948924176854306,-0.01871897287562625,-0.011750389587516086,-0.004601378501723994,0.0027124286239567415,0.010058703042079164,0.017707178919916522,0.02671107140886134,0.03807685212350469,0.05189580578939788,0.06672809678877595,0.08042856008317,0.09135977590800487,0.09895695181635832,0.10293774505384926,0.1035258312332174,0.10110148389652808,0.09573570853690999,0.08733113651457422,0.07596497140059871,0.06214223588112818,0.04664108715404631,0.031238718939487497,0.01828122151767589,0.009114904414795885,0.003477981570060589,0.000194974277662874,-0.0019080079920174757,-0.00327318921322105,-0.004056395626389086,-0.004017348746886893,-0.0028426764126104733,-0.0004422470960043219,0.0031686643873750225,0.007792352501454508,0.01367759297925786,0.02058715651882065,0.02835848266584232,0.036903578655967245,0.04565276756955974,0.05419316695130632,0.062065101675342745,0.06872720453222758,0.07367101347337293,0.07688819021251943,0.07865495312672291,0.0793239813774382,0.07944489375374994,0.07920027993830435,0.07851220513422677,0.07715656164080666,0.07503407038247777,0.07195467045649666,0.06825361299445887,0.06385216838884118,0.058795929868669966,0.0532768803333481,0.047019986396241435,0.039872283135243825,0.03206500264469819,0.023992934599334454,0.016005622271320994,0.008981866118202904,0.0032274659242680914,-0.0009526311412550658,-0.0040395456406413155,-0.006274668793433377,-0.008112386621906406,-0.009511903663131156,-0.010791433198616945,-0.0119346165801045,-0.012791306850514795,-0.013579889073888117,-0.014323672878883677,-0.01491116800815156,-0.015395857992793758,-0.01586070661342543,-0.016183977780880564,-0.016491338284260273,-0.016580328174702324,-0.01654058764227034,-0.016398172025137055,-0.016211030245139493,-0.015811731826366367,-0.015461783923322328,-0.015022311439036201,-0.014417735106373872,-0.013778085947452563,-0.013059403707851231,-0.012247482953613279,-0.011465678297407347,-0.010667168166477305,-0.00974566470044622,-0.008823337521561085,-0.007874926102297898,-0.00698244045049346,-0.00605232759289897,-0.005122214735306262,-0.004192101877713555,-0.0032619890201208476,-0.0023318761625281386,-0.0014017633049354314,-0.00047165044734272417,32.0625
-0.037439097615812406,-0.03158435257845757,-0.02572960754110274,-0.019874862503747908,-0.014020117466393076,-0.008165372429038243,-0.0023106273916834105,0.003544117645673976,0.007509341485946552,0.008926889258588628,0.007428327172758087,0.003296561347009719,-0.003136285387727097,-0.010875204200158892,-0.019051714758071388,-0.02588214388879368,-0.030344426048877812,-0.03307157743378636,-0.03419008241565351,-0.03361768009509316,-0.03157808443076884,-0.02829177846158586,-0.02370168536308156,-0.017934755598247375,-0.011425824357465133,-0.004792758504372897,0.0019914490303705405,0.008793745854652773,0.015891398111863658,0.02423192300868039,0.03482794292230891,0.04776566673475089,0.06171097142092613,0.07478289216811776,0.08535048605532802,0.09278624861832527,0.09685763223563265,0.09770032864226363,0.09564611592738942,0.09079064751822055,0.08301604517587577,0.07237701941738904,0.05926998327470193,0.04459427560429296,0.029868075677003964,0.017390589006658564,0.008354190460114376,0.0026606644894135055,-0.0006969147698366731,-0.002859143351371974,-0.004309773922102641,-0.005158841156426342,-0.005201459511548001,-0.00410328188271407,-0.001805313302319029,0.0016811400789335997,0.006251917986206707,0.01203140324587624,0.018902048571148775,0.026608753334722783,0.035213645517302716,0.04414686147663609,0.05300804157713291,0.06125770633614562,0.06838655082764267,0.07390180256135097,0.07771901635410415,0.08007952936324739,0.08147936568331757,0.08253545172243622,0.08326753153058172,0.0836476989519074,0.08326066427475708,0.0818236289400045,0.07913360900039311,0.07555105264867694,0.07109166631936181,0.0658393325770647,0.05986080721585279,0.052928519306271266,0.045049487790518046,0.03636111294376054,0.027262095504248064,0.0183976265673774,0.010748551594046198,0.004486469241840076,5.241453692121466e-05,-0.0031700245741285923,-0.005468569562743425,-0.007301023694206547,-0.008767265550717713,-0.010093776677775713,-0.011232872395379604,-0.012170887140232418,-0.01308055032288692,-0.013928366834111647,-0.014674263891927875,-0.01533569921897331,-0.015910273412610487,-0.016301486359870616,-0.016706888877900197,-0.0169257861047175,-0.017067268122302547,-0.01707929271483022,-0.017014508843620154,-0.016770252413066056,-0.01653020183196261,-0.01615295782074663,-0.015646132277440366,-0.015048805127758719,-0.014370436085548074,-0.013606267714544599,-0.012823979716727607,-0.012018097592976104,-0.011094741267683932,-0.010158919080413508,-0.009203667247648184,-0.00829321805378483,-0.0073548478349397895,-0.006416477616096551,-0.005478107397253311,-0.004539737178410072,-0.003601366959566834,-0.0026629967407235944,-0.0017246265218803548,31.9375
-0.038006013710779954,-0.03206395838419152,-0.02612190305760309,-0.020179847731014663,-0.014237792404426231,-0.0082957370778378,-0.0023536817512493716,0.0035883735753415753,0.007641785354616569,0.009102368959402692,0.007552663297802016,0.003335715219551748,-0.0032489504501910767,-0.011178389855698412,-0.019432095235378356,-0.02623278106873895,-0.030694314657341286,-0.03339869160997346,-0.03457450382917479,-0.03406168942264658,-0.03196085824866572,-0.028617787739216173,-0.023983085463530594,-0.018112527193253937,-0.011554677915034214,-0.0048998342076896715,0.0018838625650895973,0.008728924853323309,0.015819198957609363,0.024192687721944953,0.034900105369151085,0.04792751141274965,0.06198687154220393,0.07517257116686382,0.08583502200040208,0.09332579855261683,0.09740287860403458,0.09822771629825656,0.09614486548990545,0.09119835560795866,0.08336695862212933,0.072611702556533,0.059453563147825725,0.044672190064835735,0.029823091629259637,0.01726873441923654,0.008211651647933924,0.0025203066751621284,-0.0008312155048060309,-0.002965409554835686,-0.004418474726073561,-0.005266752567845947,-0.005239695608570425,-0.004141080751561492,-0.0018622626225836966,0.0016685005063550662,0.006234913339552337,0.012077026546970782,0.018987444457172417,0.02678156864968985,0.03543852226785165,0.044398386633156435,0.05326224649181166,0.06154519882685759,0.06868510731223652,0.07417558512464323,0.07799015183786392,0.08035244974206146,0.08170603323482649,0.08269463950033634,0.08333728721676129,0.08359838618248308,0.08308034979664035,0.08152245238829929,0.07879299002590213,0.0751685188445475,0.070607616948482,0.065301673958171,0.059319251683040856,0.05241846892609359,0.044501093855110294,0.035887385746870594,0.02692372068759282,0.018107838887229707,0.01052338746435794,0.00437744824627884,-5.8980576532851585e-05,-0.0032725094990493824,-0.00555353421499714,-0.007364331929453319,-0.008809466660302615,-0.010126395370016613,-0.011222623905527826,-0.012138869050212001,-0.013052058707926348,-0.013956883797239273,-0.014673872479440755,-0.015259530524872686,-0.015828777425358244,-0.016241240514814636,-0.01657135753914837,-0.016816073011389727,-0.01696214187942532,-0.01696756156672015,-0.016908663944587437,-0.01670285408471249,-0.016439874819316757,-0.01605117816470681,-0.015555373557359373,-0.01499010846794747,-0.014327745256414035,-0.013515497274565972,-0.012728301520723627,-0.011897914177317349,-0.01099339325412808,-0.010005074563862229,-0.00901884355926356,-0.008092256766373897,-0.007118494758608372,-0.006144732750844588,-0.005170970743080804,-0.004197208735317018,-0.0032234467275532343,-0.0022496847197894503,-0.0012759227120256646,31.9375
-0.03871564149687889,-0.032691547145752106,-0.02666745279462532,-0.020643358443498537,-0.014619264092371756,-0.008595169741244975,-0.002571075390118187,0.0034530189610111417,0.007530956967803291,0.009122233228938268,0.007609434290912193,0.0033508360221289023,-0.0031648245895821697,-0.01104680299666178,-0.01921831252128979,-0.02617391609658138,-0.03063957327028962,-0.0334224247478025,-0.034562418028911766,-0.03402868655722727,-0.031934581659920275,-0.028639865254061307,-0.024031294849846323,-0.018203591049754067,-0.01164502339907558,-0.00497189465202964,0.0018583101367592653,0.008811460685237738,0.015995825057391385,0.024446033590835987,0.03512489651903487,0.04818028196340109,0.06234998204698666,0.07559075520205998,0.08630272003872774,0.09381639837681977,0.09789252521819454,0.09869632405827077,0.0966221573294125,0.09167324689675718,0.08371945396692822,0.07299044352414538,0.05987511938820556,0.04500313782106469,0.030080460366451886,0.0174411434324391,0.008268243618399482,0.002566948838833199,-0.0007802578757045216,-0.002917975859514314,-0.004388441247776716,-0.005246036444937697,-0.0052669527543399795,-0.0041638497592865024,-0.0018081068081371064,0.0016528461178654532,0.00629641471236916,0.012205979561407667,0.01912196493971064,0.026908552975898323,0.03558660974674199,0.04451959432913888,0.05339510022352975,0.06168621782858839,0.0687874206847934,0.0742787891134156,0.07806417785874745,0.08044122223613648,0.08172239293128153,0.0826194919066604,0.08318116248862893,0.08337826975121515,0.08275525954540863,0.08099425699162703,0.07813462493765148,0.07445894983979653,0.06980938960869668,0.06446347953055069,0.05845024290326168,0.051565511988887994,0.04374567274168903,0.03524594878760052,0.026406791783131406,0.017713714060271932,0.01016972172473036,0.004125508308333318,-0.0002037909932120854,-0.0032922047743123915,-0.005629040721298881,-0.007407568881891015,-0.00878609181123833,-0.0100943727782566,-0.011212886028215926,-0.012128305960396301,-0.012976609516175679,-0.013826154934221102,-0.014461862832860013,-0.015067305571329716,-0.0156264087077147,-0.016046688386965834,-0.016395735404776846,-0.016652242753504364,-0.016791540629930782,-0.01681436857001224,-0.016761456865373402,-0.016532619324214022,-0.016279544538603814,-0.015922237043697236,-0.01540424094366926,-0.014810728455058686,-0.014173597298541785,-0.013359131001134995,-0.012583120573449853,-0.011749035642941217,-0.010832220359900061,-0.009896735282342393,-0.008966022304728373,-0.008051188419909417,-0.007105220721655221,-0.006159253023402802,-0.005213285325150382,-0.004267317626897964,-0.0033213499286455454,-0.0023753822303931253,-0.0014294145321407069,31.875
-0.03804646112286201,-0.032070031435667945,-0.02609360174847388,-0.02011717206127982,-0.014140742374085757,-0.008164312686891693,-0.0021878829996976323,0.0037885466874989313,0.0077953508415876446,0.009316275514234808,0.007828018359952818,0.003489952091854222,-0.0032402824183147155,-0.011282540127489504,-0.019627830854840825,-0.026616971945032396,-0.031136619851110513,-0.033758166834413475,-0.03491232621584559,-0.034389004256116885,-0.03230452461242323,-0.02899065096293671,-0.02427255737468082,-0.01832279733071194,-0.011686505227754405,-0.00492131673912785,0.0019884805432161907,0.008932557914738161,0.01613796562606207,0.02460188048087366,0.035350836197548634,0.04857865510146044,0.06287143062082591,0.07615350531734451,0.08685866243389344,0.09441605190279614,0.09849014691364519,0.09928832463335378,0.09715672457772091,0.09211849855619851,0.0841407016490129,0.07328910180721364,0.059974209683487656,0.04494084105391905,0.029948850066731647,0.01725557807246234,0.008123875367960392,0.0024889000745543267,-0.0008387623863465766,-0.0030111698703543586,-0.0044139929949619525,-0.005212540583215145,-0.005158146089904107,-0.004009195690471374,-0.0016783359616602347,0.0018503514541081936,0.006457023544397988,0.012317507969493277,0.019159603897033223,0.026966129251912458,0.0356722645717349,0.04463255562220932,0.05350770405458977,0.061771280452968334,0.06885937959199526,0.07429209983742026,0.07805662328275781,0.08038714116336865,0.08170010864797617,0.08256837505582058,0.083076243795685,0.08315161852176679,0.082475137360267,0.08070548449765237,0.07778709559123866,0.07406439671277296,0.06945869272537748,0.06412771014693901,0.058129871395257125,0.05127438594620834,0.04341669684371209,0.03489879238956407,0.026013443150852536,0.017381299753122303,0.009956342837335083,0.003953460423685031,-0.00039164035184209177,-0.0035009738942725533,-0.005768043908339461,-0.007582375209889824,-0.00900058290451796,-0.01026790104526085,-0.011340267640756383,-0.012207062980526871,-0.013043722440036732,-0.0138611459332063,-0.014510181167495024,-0.015130061233572413,-0.01566712717216463,-0.01601565822434696,-0.01633195187044851,-0.016542889022100934,-0.016678227284917198,-0.016697281119019667,-0.016660616498544438,-0.016447129495563536,-0.016196613607631957,-0.015830037453740682,-0.01531489743453843,-0.01473552077610086,-0.014076174055121375,-0.013310700280225334,-0.012529493082022596,-0.011738282620916037,-0.010840216576941947,-0.009927635994636889,-0.0089529062887445,-0.00802434010003427,-0.007090974191174699,-0.0061576082823168905,-0.005224242373459082,-0.004290876464601273,-0.0033575105557434627,-0.002424144646885654,-0.0014907787380278453,31.8125
-0.038179064093810354,-0.03218961736539576,-0.026200170636981157,-0.02021072390856656,-0.01422127718015196,-0.008231830451737362,-0.0022423837233227634,0.003747063005094343,0.007797527700873828,0.009312760818365311,0.007785908848719768,0.00357102450380935,-0.003015190218798597,-0.01099394370878301,-0.019319771873528273,-0.026318673035502328,-0.03089401223115247,-0.03368193142439175,-0.03482759760774285,-0.03430436672986631,-0.032262033987417046,-0.02893227861976235,-0.024281119828110043,-0.01837970836917402,-0.011747175173724783,-0.005008201690508065,0.0019000368338737464,0.008861012784511813,0.016070475515711828,0.024500943410455948,0.03527687810679326,0.04848071292264646,0.06272089554407798,0.07598641873017668,0.08669519752598556,0.0942726284081241,0.0983583419998011,0.09914829083110152,0.09703831876989015,0.09203848792148742,0.08405968258664867,0.07322367231538986,0.059914638685841355,0.044927922394124006,0.029952474651492773,0.01731330035674255,0.008187954482095555,0.0025194721438728937,-0.0008439221267796713,-0.0029818385643180048,-0.004401109659407091,-0.005195798791821723,-0.00519192724231601,-0.004043000438009393,-0.0017176214155380492,0.0018278912164446462,0.006482379288453573,0.012325627827218641,0.019189751985661974,0.02697593266955985,0.03566185697470351,0.044651031639609734,0.05351586272755753,0.06175424123444863,0.06885689796147816,0.07429064501636964,0.07804814004682122,0.08038386842312842,0.08169490707995476,0.08252068350782112,0.08303927216944243,0.08312789884560425,0.08252201465947832,0.08085028434703785,0.07793151714947641,0.0741936573065827,0.06960154840246893,0.0642149941768757,0.05820223818722239,0.051336326081920694,0.043529850239484615,0.0349894053972,0.02617821831984788,0.017561925857315887,0.01007187176999307,0.004006920623232653,-0.0003812558469106587,-0.0034536239336557845,-0.005672807880507055,-0.007485612244425458,-0.008897725947232525,-0.010230194744536899,-0.011377241121975312,-0.012307604033774342,-0.01314712635402263,-0.013959871507765682,-0.014623709833433887,-0.015210593581160262,-0.01574557642635637,-0.016099985046145383,-0.01643586963970734,-0.01665343586907769,-0.01676194574736988,-0.01677950293712968,-0.01670682205661547,-0.016483258638723748,-0.01622853225991752,-0.015830475877876275,-0.015335091291468093,-0.014755507859675273,-0.014072094598576472,-0.013292333981700597,-0.012543245901444263,-0.011758356847655315,-0.010824420844564336,-0.009913450710600583,-0.008977090610280198,-0.008080903265779035,-0.007164952995149376,-0.006249002724521538,-0.005333052453893702,-0.004417102183265863,-0.003501151912638027,-0.0025852016420101886,-0.001669251371382352,31.75
-0.03573231186928534,-0.029957850518905885,-0.02418338916852643,-0.018408927818146976,-0.01263446646776752,-0.006860005117388063,-0.0010855437670086107,0.004688917583373367,0.008616137341295117,0.009938587127178981,0.008146437774870303,0.0035371109074614866,-0.003222553046189794,-0.011170436122889293,-0.01946839590890123,-0.02633061923226102,-0.030955748116159934,-0.03379249970658583,-0.03492083121866694,-0.03435799144837412,-0.03227508334545767,-0.028823203397685123,-0.0242203335043529,-0.018369756319917007,-0.011778264695341358,-0.005122239019056842,0.0016321306001952716,0.008487674579197753,0.015655648802583865,0.024040943830012776,0.0346386735308977,0.04765279125966612,0.0616245520928937,0.07464291132886802,0.08521386600076922,0.09262350455834603,0.09667803953790469,0.09751718261790333,0.0954112111479723,0.09049875240828745,0.08271925854031983,0.07207452772349976,0.058974518787482694,0.044250321439200394,0.029621111889834486,0.017121987259294733,0.008227946091337436,0.0025783943859665755,-0.000787067254632807,-0.0029332259758477904,-0.004407163456474584,-0.0052385318125852875,-0.005236095348089936,-0.004089852047163919,-0.0017909400423245375,0.0016510334467083566,0.00627417746995372,0.011996504653979874,0.01876065993823882,0.02659048224041525,0.03512230143829682,0.04408994579650972,0.05291526082117003,0.06112080791102235,0.0681845069446326,0.07365268686031524,0.07746211213898824,0.07987678983742866,0.08145392222751668,0.08266222742659862,0.08360027174792278,0.08422163196375293,0.08408726266265563,0.08283128237351606,0.08048667602130473,0.07705264746551053,0.0726710469827232,0.06741938846029545,0.061273897495377136,0.054201218545863246,0.046195696268812494,0.037299224126984,0.027947277253415392,0.018838372860715668,0.01093026798379643,0.00462745690856323,-6.338925656291056e-05,-0.0033998494200596255,-0.005806541005579798,-0.0076865170101725775,-0.009162630150644486,-0.010465074847201716,-0.0116442962098179,-0.012737012787929674,-0.013749127002567915,-0.014594312514515196,-0.015338429361228211,-0.01602650066126851,-0.016658732313044083,-0.017076266831459803,-0.017382835834494046,-0.01764725057011906,-0.01781605981160357,-0.017839312605153302,-0.017825009529073663,-0.01756780123773053,-0.01721968193595056,-0.016801131652055025,-0.0162520280508917,-0.015588129223957045,-0.014891835714155005,-0.014075489705895988,-0.013243097348369155,-0.012400890500058347,-0.011462034939006249,-0.010510674481304902,-0.0095159380923065,-0.008536342099580445,-0.007583543023799704,-0.006630743948020762,-0.0056779448722418194,-0.004725145796462877,-0.0037723467206839355,-0.0028195476449049926,-0.0018667485691260498,30.8125
-0.035736242459258834,-0.02994013517618963,-0.024144027893120423,-0.018347920610051215,-0.01255181332698201,-0.006755706043912804,-0.0009595987608435955,0.004836508522228147,0.008765472055489882,0.010053438647918786,0.008242256740538318,0.0035643975699413528,-0.0032603241547603224,-0.011336377605389926,-0.01981382194820225,-0.026843869287774207,-0.0315356654398104,-0.03432100711196304,-0.035430849203903485,-0.034869110884710654,-0.032747250548354166,-0.02933086299989656,-0.024684185154685904,-0.018701432743188792,-0.012042539732941518,-0.0052730942463912935,0.001580983095198382,0.008538296205932796,0.015817955077308012,0.024333761495649038,0.03514973865124423,0.04837843120687343,0.06260456685989453,0.0758157265097472,0.08651302706368505,0.09407027409116206,0.09817185864040376,0.09896471556261319,0.09681291832375997,0.09182971079413407,0.08393075106784198,0.07311617093995001,0.05980578209096994,0.04480970798412216,0.02990288410890277,0.017255862835767136,0.008222655345876238,0.002561976780988347,-0.0008362827029192841,-0.0030409727701971112,-0.004499448882911313,-0.005261805652130334,-0.0052161421299248,-0.004090305666193026,-0.001746098728973859,0.0018024709471524641,0.006464549392697343,0.012276978184318539,0.019163298148407896,0.027016122664888273,0.035634701488666994,0.04461384525501694,0.05350508864868144,0.06173841523298332,0.06875743479379139,0.07416827569428833,0.0779331474333386,0.08025775020126433,0.08165759970650813,0.08258782454541892,0.08329247033604974,0.0835378727496279,0.0830066970126676,0.08143622700181911,0.0787303078112929,0.07504553972626458,0.0704858327516922,0.0651555547069748,0.059077818284803976,0.05210691363443558,0.04425785152027074,0.03560567189115027,0.026519054103784294,0.017736244754145297,0.010136608271374387,0.004079418006392357,-0.0004285698095037982,-0.0036116426329436744,-0.005918416996681163,-0.007743140500301779,-0.009178929826486245,-0.010452167279761098,-0.011583870704920937,-0.012578770851190184,-0.013488364906606726,-0.014266829807568977,-0.014897281912416835,-0.015535558482257494,-0.016100418263548445,-0.01641449284328723,-0.016732909723633713,-0.01699846984578403,-0.017162936215447087,-0.017207677172188008,-0.0171680554132881,-0.0169448361903543,-0.01663626925707317,-0.016215010605464396,-0.01570489433279345,-0.015077508197384211,-0.014415758232564952,-0.013593148920951613,-0.012776768660369813,-0.011949664443335048,-0.010983176538741838,-0.01001428857662426,-0.008996345103487785,-0.007969092736716196,-0.006962335993657613,-0.005955579250600808,-0.004948822507544002,-0.003942065764487196,-0.002935309021430391,-0.0019285522783735864,-0.00092179553531678,30.8125
-0.03597831356127399,-0.030145497688475836,-0.02431268181567768,-0.01847986594287953,-0.012647050070081375,-0.00681423419728322,-0.0009814183244850685,0.004851397548315615,0.00869245203434316,0.009994362730270932,0.008336269259877281,0.0037441914596864274,-0.0030814698600258278,-0.011259732392568797,-0.01969033431700422,-0.026738027596063033,-0.03135799073263326,-0.034173686548164744,-0.035262938588706536,-0.03473765324922752,-0.032662584472623504,-0.029233232202069147,-0.02457090667295013,-0.0186988808287743,-0.012126344520685287,-0.0053495276503107425,0.001555188389834262,0.008542851160526893,0.0158295074757446,0.024337674774374166,0.03516729702060757,0.04844593054309611,0.06269661996417197,0.0759042853749756,0.08660487860256763,0.09414556769496299,0.09827940710880932,0.09908968502775277,0.09693494802555502,0.09193377471281342,0.08396284916419375,0.07308432000768973,0.05970041899336319,0.044706222390353684,0.02981936281808404,0.017154729979758084,0.00813680651752884,0.002477175604801145,-0.0008884456941321334,-0.0030895564687755546,-0.004548668840014323,-0.0052804347546290265,-0.005207063979067997,-0.004045893032644177,-0.0016353757351751407,0.0019148773046505781,0.0065503557368929,0.01231702109184223,0.019158372597837862,0.027075792723522594,0.035722101396857595,0.044698406445647126,0.053587933826685974,0.06183723803601204,0.06885013918756014,0.07427353591287555,0.07804469106317698,0.0803702781484811,0.08177449013595571,0.08275650230720837,0.08345578714882058,0.08367816194928633,0.08310994790480249,0.081435467461721,0.07867297309258497,0.07493406166374138,0.07027077007219712,0.06488933043737807,0.05869723117791573,0.05168121669587958,0.043804129676442365,0.035141686650191545,0.02607140149410558,0.01734982878493961,0.009771832471478366,0.0038012335594249133,-0.000639461148337135,-0.003743658459728109,-0.005990350446983099,-0.007755690726769348,-0.009165350695592512,-0.010422036900235257,-0.01150086212908558,-0.012479388980296173,-0.013342210423811592,-0.014115407369068009,-0.014749122111597871,-0.015392900004389075,-0.015897403897562654,-0.016277096967080427,-0.016573814157615285,-0.016862980515402262,-0.016983488474808323,-0.017029376440000233,-0.017019118966837214,-0.016800339140050857,-0.016523692729209682,-0.016142375675442744,-0.015583461369821333,-0.014938448138584151,-0.014290228579470553,-0.013472226325188193,-0.01269281104708058,-0.011836332858281581,-0.010915270065115345,-0.010002563156717865,-0.009061901510904571,-0.008038527710046275,-0.007078435658262333,-0.006118343606480177,-0.005158251554698021,-0.004198159502915865,-0.003238067451133711,-0.002277975399351555,-0.0013178833475693992,30.75
-0.03457996145925687,-0.028894439622787545,-0.023208917786318225,-0.017523395949848905,-0.011837874113379582,-0.006152352276910258,-0.0004668304404409421,0.005218691396030892,0.009109205032155577,0.010370016255445072,0.008432517120104127,0.003724524911279385,-0.002982121269724491,-0.011041325507471155,-0.01945017457972427,-0.02648308911130042,-0.031182825896149735,-0.0340190402527306,-0.035175314705523354,-0.034678049672774026,-0.032556465412300346,-0.029176215005907044,-0.024523488042850424,-0.018628786273771864,-0.012031178054742634,-0.005274784127950014,0.001613831257208063,0.008614958380120497,0.015935293841678883,0.02444635550351135,0.035275204502590966,0.04853153273710032,0.06275329295845446,0.07598478550105821,0.08668245711826546,0.094227711925363,0.09835910872553813,0.09914892760156169,0.09693555624404641,0.09185416784889092,0.08385203099958284,0.07303051830394823,0.05967529436648515,0.0446889896952837,0.029794451295129806,0.017183905197748962,0.008163996473768963,0.002490686126866013,-0.0008507307429328691,-0.0030073776467082597,-0.004436673937312394,-0.005180253553317033,-0.005124814757599835,-0.003969054012656074,-0.0015979007602828965,0.0019325703167892602,0.006616477957887801,0.01242162378806962,0.019263551460140214,0.027176522510836718,0.035856895337741106,0.04485442722549329,0.053712345815451014,0.06200997158477122,0.06904838695553164,0.07445941195866976,0.07818330653653169,0.08046472891165932,0.08184605599635218,0.08272112538413705,0.08338905665996003,0.08355236021999629,0.08293836826833052,0.08118960956195488,0.07832895104215319,0.07449720419556798,0.06982500353983084,0.06439433407086213,0.05827679555563241,0.05128523172911099,0.04342876437661876,0.034777035621701216,0.025739609460066162,0.01707360795734072,0.0095339039718126,0.003651490927524809,-0.0007238143594127232,-0.0037235210983746206,-0.0059376713480608165,-0.0077138370623866,-0.009161479665202242,-0.010387242129185884,-0.011452616672276738,-0.012433520984177215,-0.01328913611687611,-0.014086133018791639,-0.014723172403688017,-0.015356018821815863,-0.01587968149601187,-0.01622740617388229,-0.016524884670510404,-0.016773269357557814,-0.016851797238493466,-0.016871609700674382,-0.016844758052560888,-0.016670999843595057,-0.016376312030147205,-0.016001527444224437,-0.015489332950660075,-0.014844976699912667,-0.014213490913385095,-0.013433127038584243,-0.012647042957463446,-0.011810907071043264,-0.010885538742831356,-0.010011221867625304,-0.009040341800780559,-0.008054578090307301,-0.007096615039902304,-0.006138651989499082,-0.005180688939095861,-0.00422272588869264,-0.003264762838289418,-0.0023067997878861955,-0.0013488367374829748,30.75
-0.035506142292718375,-0.029653943289229802,-0.02380174428574123,-0.017949545282252656,-0.012097346278764083,-0.00624514727527551,-0.0003929482717869373,0.005459250731704158,0.009439230679344195,0.01067824427337903,0.008730487238578423,0.003921285030103785,-0.003100105337444038,-0.011379285564714183,-0.020015604290307312,-0.027148244347255577,-0.031881339849321066,-0.03475703778186279,-0.036035675838702104,-0.03543229410370012,-0.033316578938476324,-0.02980350222432342,-0.025004578420784063,-0.019008640011892126,-0.012278344102559232,-0.005352926607481287,0.0015761416335774913,0.008668731354053568,0.016097485294715476,0.024767429828358715,0.03581537867505752,0.04926954036170004,0.06370934322446434,0.07714940344946314,0.08804388647854444,0.0957363136564582,0.09999450958656396,0.10086081927989905,0.09862346675012172,0.09347259198178456,0.08536211096115526,0.07433303784405944,0.06072283268338922,0.04549335357218221,0.03032788999756057,0.01744757346562037,0.008234662419987701,0.0024395752787525447,-0.0009875618103267413,-0.0031827724595986954,-0.004642221906406369,-0.0053954019022420625,-0.0053022042131136895,-0.004096750584818335,-0.00168134223581149,0.0019493470565542484,0.006718856158113462,0.012585216899988724,0.01955388859034864,0.027563426344516934,0.036326564364587824,0.045438792711201166,0.05439112931087467,0.06268567601268961,0.06970918594227447,0.07508713122683956,0.0787333593044774,0.08095352839212021,0.08214549695486975,0.08280578325692532,0.08309645604417304,0.08285959183448628,0.08180811815418998,0.07969519638401053,0.07653222985176229,0.07254218583692075,0.0677771638187753,0.06235128112948272,0.056168393986745925,0.04925252782938753,0.04155522551869773,0.033178584662920854,0.0245167765577721,0.016137824216627503,0.008956613548051261,0.0032359254158534274,-0.0010012514073083059,-0.003998337344163671,-0.0061602906221441545,-0.007910715450647846,-0.009288795008909044,-0.01042991229446801,-0.011470963277105796,-0.012463599148040438,-0.0132985216718819,-0.014041012799016922,-0.01462636494815012,-0.015200790075544791,-0.015687322722955206,-0.01596426668801872,-0.016201929410832327,-0.016391807427043086,-0.016503991516892223,-0.01652345002098819,-0.01650449584097242,-0.016300734903552716,-0.015952373045126103,-0.01557505457909229,-0.015061274422346567,-0.014447301881659588,-0.013800170032696785,-0.013021969958880171,-0.012269028116082353,-0.01146091882250699,-0.010569526010680725,-0.009699777107298123,-0.008776415752385412,-0.00782703968033365,-0.006943374005934208,-0.0060597083315365105,-0.005176042657138814,-0.0042923769827411164,-0.0034087113083434185,-0.0025250456339457224,-0.0016413799595480245,30.6875
-0.03494608578014726,-0.029699731151847524,-0.024453376523547787,-0.01920702189524805,-0.013960667266948314,-0.008714312638648577,-0.00346795801034884,0.001778396617953298,0.0052932406087834935,0.006396970806464171,0.0047398962387977285,0.0005157038581583789,-0.005760227298819329,-0.01319758447021602,-0.020968827865154357,-0.027492093642432255,-0.03173642010931937,-0.03424856672786819,-0.03518477871000212,-0.03451461494627005,-0.03250606046399679,-0.029314001800010325,-0.02494135265183893,-0.019426222583285406,-0.013288986579907538,-0.007001009150162109,-0.0006468117627813426,0.005766452236639084,0.01243433994826286,0.020282620584713393,0.03036243355771059,0.04282263196552342,0.056431335036112536,0.0693296231387624,0.0799717579183474,0.0876294119544448,0.09207987524933425,0.09338347491648191,0.09183471741803538,0.08751186534833598,0.08035826280432223,0.07029421700734206,0.05776373594883432,0.04349081165152684,0.02908311672333026,0.016609959391236002,0.007533235273174664,0.0016759348202617904,-0.001970767315949903,-0.0044177132861901594,-0.006154452756034789,-0.007196468076659453,-0.007373507926058946,-0.006413546400219918,-0.004217346888275787,-0.0007704875570780296,0.00384375608182039,0.00971681159054449,0.016768732878136232,0.024968569786491524,0.03406627155713997,0.043742853759846996,0.05345913206132537,0.06261522292449664,0.07062661608160384,0.0770207689401647,0.08164923806487384,0.08486642918807236,0.08719068352474725,0.08902810069795461,0.09051876241286351,0.09125737867618032,0.09083904006908053,0.08898195907361862,0.085596155280269,0.08106049542117129,0.07552708808193269,0.06922516271909411,0.06215676764747368,0.054241727704219575,0.04547329193457609,0.03594371934680158,0.02622118095891138,0.017051929976038584,0.009397801707873497,0.0036276867449770876,-0.0004033119756732878,-0.003133958032369693,-0.004967830045315063,-0.00649296405019897,-0.00768318040200855,-0.008692623880963046,-0.009598172953875713,-0.010420213807279758,-0.011138590538556438,-0.011801117360472329,-0.01242084773491582,-0.013007574788354659,-0.013590447616277737,-0.01400008633949292,-0.014427299361443637,-0.014819884954782392,-0.015164922979887125,-0.015417859559411887,-0.015637635255253683,-0.015692479187514402,-0.015620218519196441,-0.015502507078286692,-0.0152627572829165,-0.014872510889340386,-0.014403592238459379,-0.013833372905625838,-0.013191038346946639,-0.012508501064884284,-0.011736371219889005,-0.010896683346513272,-0.010023689146982288,-0.009052084951236192,-0.00811119993866153,-0.007170314926088793,-0.006229429913516058,-0.005288544900943323,-0.004347659888370587,-0.003406774875797852,-0.002465889863225117,32.3125
-0.03212828496533526,-0.026837671271133273,-0.021547057576931282,-0.016256443882729288,-0.010965830188527297,-0.005675216494325307,-0.0003846028001233126,0.004906010894081111,0.00830593574893664,0.009119389354590699,0.006921203910701477,0.0019243334763999946,-0.0052575795055656675,-0.013690157256701935,-0.022477492780176963,-0.029819253919961684,-0.03467723041235897,-0.037515194740352586,-0.03873769781583894,-0.03815396421706661,-0.03600250764030008,-0.032536339137945285,-0.02774253855290806,-0.02167000291818523,-0.01485845103529716,-0.00786058881334863,-0.0008231910394428304,0.0063200670470132175,0.013826565017909312,0.022625126336073328,0.03386573639605778,0.0477180734901525,0.06272692880162924,0.07679581210615448,0.08833187467927751,0.09661456187049836,0.10135660586410232,0.10264120423171555,0.10077416363728418,0.09593056605016087,0.08795566699989275,0.07682765221426796,0.06305802730074557,0.04737965292492306,0.03170682385220024,0.018253254177658385,0.008489045339561142,0.0022113540903032666,-0.0016725133702104782,-0.004278100271866119,-0.006041457732187017,-0.007069142606323094,-0.007233668285888427,-0.006197588850291996,-0.0037778590843787177,-7.433564424339108e-05,0.004865688673862478,0.011159527866346606,0.018562689043168237,0.02718085741559566,0.03662222841505406,0.04648807582229217,0.05620224946905951,0.06521171899387584,0.07284878458321514,0.07872836890525571,0.08272719808245489,0.08502354710754288,0.0861466068174602,0.08651451521108029,0.08619300093213164,0.08502391662274748,0.08285617562675542,0.07954462413142012,0.07522224898539723,0.07018977376541721,0.06455084298030742,0.05848380243581647,0.05202763791737662,0.045034736469248014,0.03748556657343175,0.02944919023556138,0.02127255262077615,0.013590563252529799,0.0071480334589159025,0.0022211211368087804,-0.0013495030053118924,-0.0038190877112352227,-0.005582705248460273,-0.007057727547751788,-0.008157788476784996,-0.009144677327235333,-0.010011982302159151,-0.010786367721777764,-0.011443988911513693,-0.012021243762852095,-0.012496926995539677,-0.012970318461448246,-0.013379656333392042,-0.013670002584145474,-0.013906865693325204,-0.014101614369166463,-0.014134600360671476,-0.014134935113122296,-0.014178053803813293,-0.014003287274270094,-0.013747806778784228,-0.013430796207809407,-0.013007257106892047,-0.012520089290120676,-0.011997656590159476,-0.011368901361763975,-0.010730785939838327,-0.010091769261314215,-0.009359884527861915,-0.008627845293278452,-0.007826422175704853,-0.006939611432970643,-0.0061278798507821385,-0.005316148268595473,-0.004504416686408807,-0.0036926851042221424,-0.0028809535220354777,-0.002069221939848811,-0.0012574903576621464,32.25
-0.028210356696184602,-0.022929707060339075,-0.01764905742449355,-0.012368407788648027,-0.007087758152802499,-0.001807108516956972,0.0034735411188885484,0.008754190754736648,0.012142478530636668,0.012565253546754581,0.009657950550030197,0.003913696521019988,-0.004120167719850653,-0.013628152568724128,-0.02344489625270633,-0.03157315004564527,-0.03697052540087177,-0.04026692211083796,-0.04179790947665835,-0.04138325316162241,-0.039216059118371685,-0.03544938582090813,-0.030279124509948442,-0.023609459896855034,-0.01614765935521463,-0.008483248410090346,-0.0006314275643235966,0.0073180410690172094,0.015658285619288934,0.02542952431463099,0.037764964018080924,0.05277125092809279,0.06885610341607361,0.08373074961429632,0.09582998861584814,0.10432454777746628,0.10895350627615895,0.10994114460817625,0.10764154045177685,0.10208533335464187,0.09322748300242897,0.08116340757339667,0.06629188310398648,0.049629041974766044,0.033103125331544525,0.01907383888350102,0.00906309436966891,0.0027769818496326173,-0.0010438542700468637,-0.003522218766645485,-0.005227854725616092,-0.006220724435335006,-0.006243652044301341,-0.0050281881785877065,-0.002555952694609672,0.0011341017402464186,0.006168926350273015,0.012479923075205637,0.01989279079347582,0.028402413951242756,0.03760634599876987,0.04713720468124585,0.056331967339812945,0.06472081378813882,0.07166350281765102,0.07670311067734693,0.07986569497813865,0.08140205712263056,0.0816934230746803,0.08122138568873158,0.08008143070696157,0.0784099820908289,0.07598690556252004,0.07270032078816846,0.06872560439661918,0.06421641604286457,0.05925190203161182,0.05396262618851804,0.04828469235051482,0.04213989183462322,0.03531574301095872,0.02796608478572653,0.020438581780335335,0.013220314694049926,0.0070666343488497985,0.0021661819633236085,-0.0014925283286996713,-0.004144329404479101,-0.006068136151055899,-0.007644567835875312,-0.008824013238669725,-0.009857906656710031,-0.010829530961151457,-0.011676106861866525,-0.012347526750613859,-0.012996636757651107,-0.013502911125235101,-0.013977885473361746,-0.014330982785372278,-0.01451177831626425,-0.014701784601780683,-0.014844303104472824,-0.014850645839693238,-0.014750141063558984,-0.014648684877141672,-0.014319924364400794,-0.013867466726306614,-0.013483290011715898,-0.012952265188217274,-0.012340205028000246,-0.011730599230542416,-0.011022350111852035,-0.010317424034874964,-0.009570263614462702,-0.008777008055263682,-0.00803071631380554,-0.0072166951910370165,-0.006348981435772038,-0.005531859822306822,-0.004714738208843432,-0.0038976165953800417,-0.0030804949819166517,-0.00226337336845326,-0.00144625175498987,-0.0006291301415264801,32.1875
-0.028069731376602975,-0.022565647229262794,-0.017061563081922613,-0.011557478934582432,-0.006053394787242251,-0.0005493106399020696,0.0049547735074381115,0.010458857654780872,0.013893004749631042,0.01433909968558859,0.01140888809935653,0.00531085868582912,-0.0032056076850754487,-0.013156536209661347,-0.023471924006375856,-0.032182103811757914,-0.037914931914340554,-0.04145161567037987,-0.043120979397731886,-0.0427482223940447,-0.04061526671182035,-0.0368153329356734,-0.03140440440483644,-0.024524018258230428,-0.01678296678318917,-0.008735280941833616,-0.0005127089426003773,0.007788165954954343,0.016497175019632545,0.026702501796108162,0.039544352304665124,0.055063409072635516,0.07157324290415804,0.08683853236687096,0.099117743693338,0.10764822049770269,0.11227958099412041,0.11320986409093456,0.11063676545012666,0.1047819823423674,0.09559165214972379,0.0831023427159588,0.06780442490922345,0.05073916006921499,0.03385045916390815,0.019594264156709774,0.0094913971314501,0.00314523335607668,-0.0005910958721920031,-0.0030499504447710608,-0.0047791287674305155,-0.0057633343010461,-0.005760158204002588,-0.004575360066079728,-0.002013218247942821,0.001773216403639785,0.006784727230988206,0.013034574083194353,0.02045329586034294,0.02887741614151392,0.03801565976690272,0.04740923026089527,0.05640658620935936,0.06456572314750722,0.07120369475546273,0.07597088823445212,0.0787904790667508,0.07995616365206193,0.07997366779227003,0.07925078525665405,0.07783886057365241,0.07587217285952534,0.07318656204914609,0.06978252663308201,0.06572479917215221,0.061277081176492165,0.0564489436649953,0.0513787248913989,0.04589943051563607,0.039885825464597395,0.0333520099000454,0.026299935056486666,0.01905055764636534,0.012149539687305519,0.006213115218682542,0.0014881510120425038,-0.0020308932992060755,-0.004591981165857667,-0.006489734755811944,-0.008019929886567384,-0.009217019377622643,-0.010260217709238814,-0.011104261937899346,-0.011854675395421283,-0.012516571170767012,-0.01308346888656084,-0.013531896758373716,-0.013921901535691507,-0.014291211833169944,-0.01449297232966352,-0.014618805591453758,-0.014681757828817948,-0.014614689483626039,-0.014508838572293197,-0.014369489094833496,-0.014089650732903034,-0.013725738376139733,-0.013337043916884611,-0.012763295516436398,-0.012127905196686727,-0.011494138531927892,-0.010712661990765319,-0.009953503584433032,-0.009273619420899208,-0.00849325380157251,-0.007725934392523082,-0.006926412492821923,-0.006102193946154837,-0.00534514241165381,-0.0045880908771545655,-0.0038310393426553213,-0.003073987808156077,-0.0023169362736568336,-0.0015598847391575885,-0.0008028332046583452,32.0625
-0.027467261302095123,-0.02189979115811566,-0.016332321014136196,-0.010764850870156734,-0.0051973807261772725,0.0003700894178021892,0.005937559561781654,0.011505029705763684,0.01502067450534874,0.01549041606031949,0.012450101218295973,0.006247460548239148,-0.0024908933389151964,-0.012724601478287507,-0.023225839938934092,-0.032045799327264625,-0.038074098142168986,-0.04171901143945758,-0.043576047996759806,-0.04328526280549971,-0.0410952997579301,-0.03732742085095267,-0.03184618662665539,-0.024783843593565457,-0.0167329032481349,-0.00847537878103884,-5.2651053478268134e-05,0.008578592278128681,0.017588446179432237,0.028111952275017945,0.041285335092725514,0.05703915465394184,0.07366827222372406,0.08888697184899548,0.10105689546460715,0.1094047964085106,0.11380205248102065,0.11445387960868585,0.11161673507104203,0.10548070015526008,0.0960226400604816,0.08329443799070778,0.06780062590112393,0.05056421499121933,0.03370259467396189,0.01957060514370651,0.00965645135142557,0.003528624124011521,-7.754093886702688e-05,-0.002387463420938262,-0.0039676176060522445,-0.004818937365198944,-0.004723311940493535,-0.003493774430399922,-0.0010131610840467447,0.0026876214158020008,0.007600716694151098,0.013721114459022521,0.02087383989825963,0.029072841783316098,0.037821923328176056,0.04680800057760738,0.05544031860202018,0.06321973076893812,0.0695884641004021,0.07413100529926173,0.07678459230564993,0.07789779617241854,0.07781168733780144,0.07711193632266519,0.07587830756823435,0.07415909554570563,0.07183572828604814,0.06876267014831357,0.065044811150362,0.06078560344519586,0.05614608789686719,0.05120256028292344,0.04580736522350252,0.0399427146997474,0.03344033405327097,0.026373450628367826,0.019130925340600933,0.012110602055055996,0.006130373878777676,0.0013949957321590396,-0.0021910688694111056,-0.004762712402264937,-0.00667821521288036,-0.008218346355566113,-0.009490130410445,-0.010529617762400644,-0.011383161023904456,-0.012202284468919975,-0.012853741012859318,-0.013457155082535695,-0.01393981815087115,-0.014364225457449985,-0.014738692901087804,-0.014887385915383203,-0.014989919020744704,-0.015070009575648247,-0.015019980772612955,-0.01491283760569764,-0.014748431841411794,-0.014477935367993088,-0.014073658169420699,-0.013601267681975057,-0.013054300925471496,-0.012376162353246633,-0.011714299818275901,-0.010957034208835537,-0.010208677432172703,-0.009499987937560964,-0.008667286304817903,-0.007863623612858835,-0.0070204863423863105,-0.006199939855862172,-0.005410683715252154,-0.004621427574643897,-0.0038321714340356396,-0.0030429152934273816,-0.0022536591528191235,-0.0014644030122108673,-0.0006751468716026093,32.0
-0.029457161618140756,-0.02352583958746415,-0.017594517556787544,-0.01166319552611094,-0.005731873495434334,0.00019944853524227202,0.006130770565918875,0.012062092596598122,0.01579080889480504,0.016385938882886617,0.013453652788137862,0.007143950423925923,-0.0017921697946521032,-0.012296111631424684,-0.023119261040648216,-0.03212053719209095,-0.0383334664477355,-0.04222966564566485,-0.04404270529432565,-0.043947189633413174,-0.04177602920740233,-0.037793217203859,-0.03216199362028092,-0.025033389093832386,-0.016903859381666116,-0.008328253654934784,0.00037324949363142223,0.009207126155521664,0.018480094410584815,0.02926140811141129,0.04275178655470797,0.05880394154451608,0.07570062607780191,0.09110390974971805,0.10343247265854584,0.11182866310993587,0.11625002847498972,0.11686236771226494,0.11384501583448627,0.10748589215775134,0.09779733981342068,0.08482288789371692,0.06905330295269843,0.0514936633730307,0.03434733534894613,0.020053534411915038,0.010062776005791385,0.0038879053942488194,0.0003761011771709577,-0.0019378543120642329,-0.0035138501269038735,-0.004368993221050511,-0.004215738837282531,-0.0029458898213172158,-0.00041635838744718954,0.0033415845195188826,0.008292528921815725,0.01449495636494359,0.02168625071602757,0.029928702060398698,0.03872924612988583,0.047652560526727034,0.056220767928770454,0.06395751757735015,0.07008556832940295,0.0744652789703907,0.07683146811127142,0.07765433304346389,0.07731287069343148,0.07615589294881368,0.07442908210422973,0.07210574690532855,0.06926855784686607,0.06583440377658525,0.06191996450566458,0.057623963052113564,0.05297161132010104,0.04816104780743342,0.042926382925513436,0.037301657466299466,0.031202029123065966,0.02448514978519666,0.017606438980056267,0.010997552205487031,0.005281846710068315,0.0006912027659748258,-0.002900077178976149,-0.0055273873647818566,-0.007471111864271581,-0.009067913008269264,-0.010336203985212889,-0.011393860676640903,-0.012260051683850328,-0.01307784905478054,-0.013706730259891216,-0.014196615498947398,-0.014640326126997717,-0.015008526944684618,-0.015310062577565503,-0.015370763148339042,-0.015412059051297253,-0.015439757522793583,-0.015319017367498026,-0.01517385219642842,-0.014934213204681114,-0.014561117941178595,-0.014049309991443656,-0.013557788024526255,-0.012937515378454431,-0.01219255239734527,-0.011487547608923216,-0.010691342455545785,-0.00989817469137219,-0.009108579400510923,-0.008208835472147907,-0.007360428142660583,-0.00648904367204554,-0.005637976659783836,-0.004831406085502649,-0.0040248355112231715,-0.003218264936943693,-0.0024116943626642153,-0.0016051237883847377,-0.00079855321410526,8.017360174217628e-06,32.5
-0.029262683407167617,-0.023156538813800278,-0.01705039422043294,-0.0109442496270656,-0.004838105033698262,0.001268039559669077,0.007374184153036416,0.013480328746406384,0.01749488309066879,0.018203724600260818,0.014926472679510312,0.008391049990400036,-0.0007048523212975151,-0.011510171865655044,-0.022574724651330924,-0.032069882190271515,-0.0385337702495088,-0.04267882405412644,-0.044743044386655266,-0.04465932066149877,-0.04250111892548572,-0.038490947601349995,-0.03294450392874206,-0.025460384655953825,-0.01690006246107606,-0.008227096156648166,0.0006532816835172913,0.00975276950587641,0.019331253656206752,0.030486798005354955,0.044316977416306226,0.06074579875462588,0.07787027479993947,0.09334852557143436,0.10556339386662365,0.1138924465214115,0.1180588558572648,0.11834324346605737,0.11507837919747348,0.10850202917590916,0.09854757346459522,0.08529338459863427,0.06920363113742156,0.05144484297529807,0.03422574390880296,0.01998980448147226,0.010155019496025972,0.004098558674601441,0.0005938819970475426,-0.0016567028415869448,-0.0030922198790185305,-0.003804169378172713,-0.003648326839255368,-0.002273476314025224,0.0002999849904129381,0.004102447763969051,0.009021358150221726,0.015032725226574666,0.0221022363944308,0.03013343567361155,0.0386425662938439,0.04728399159121126,0.05553540850462071,0.06280349296545752,0.06863309024044278,0.07259298728991455,0.07473000087322114,0.07532404696686593,0.07488080564658606,0.07371578544094469,0.07217782289751515,0.07016808263545096,0.06774092985759866,0.06476518574368809,0.06127933094590007,0.05738019886658811,0.05315105211946883,0.04859876635198944,0.043616186485795704,0.03812887830413192,0.03196257122014942,0.02525087268376546,0.01829893672822292,0.011473453610934206,0.005576773646773877,0.0008072896224651326,-0.002896518276502061,-0.0055574266579002645,-0.007600642625912614,-0.009312892165850458,-0.010601313013026713,-0.011713526933500385,-0.012690361160800636,-0.013554559483380586,-0.014270447300881589,-0.014947033983212829,-0.01544242520226885,-0.01585642450882302,-0.01622644592717054,-0.016356443251936564,-0.016417158993117305,-0.01641281043327598,-0.016261628237735734,-0.016102126344687717,-0.01594803963936667,-0.01551531691100504,-0.015008898400577744,-0.01441798655195047,-0.013790563210315802,-0.013010825406616225,-0.01229216435661258,-0.011437089804869455,-0.010552264539947738,-0.009688640555459985,-0.008771307754516889,-0.007910112399676343,-0.006998522979655774,-0.00612168921904623,-0.005325357388212429,-0.0045290255573803085,-0.0037326937265481867,-0.0029363618957160657,-0.002140030064883945,-0.0013436982340518239,-0.0005473664032197029,32.4375
-0.028312837530732278,-0.022186936497335177,-0.016061035463938073,-0.00993513443054097,-0.0038092333971438685,0.002316667636253232,0.00844256866965034,0.01456846970305018,0.018618930215920003,0.01921451256288141,0.016055342758724778,0.009558838332208799,0.00018341129793297576,-0.01096691747484099,-0.022219720584675737,-0.03198179552824655,-0.038454750183695055,-0.042587379528159754,-0.04499487742629041,-0.04486581436434832,-0.042732187119659176,-0.038771872055848325,-0.033090891501280216,-0.025488896783948747,-0.016897153326637153,-0.00791901138840046,0.0013321867432943442,0.010696292783798167,0.020476270575883363,0.0318291793016601,0.04577106288103701,0.06222148320988451,0.07938450172704475,0.09478708026079045,0.10684478363016199,0.11493675068645684,0.11880183331989384,0.11879133187648001,0.11525212316643665,0.10845369842400197,0.09831572644291917,0.08488452284758863,0.06868263667952633,0.05099211618607465,0.03387633974154596,0.019743375366059548,0.010013802466208997,0.004153813787996726,0.0009102438712486171,-0.0010737976167034954,-0.0023325794571811514,-0.0029557601200450806,-0.002700257236024983,-0.0013857866941690117,0.001240982496253335,0.005005162021681482,0.009829412119506635,0.015683597770335768,0.022562391048442907,0.03037767756435289,0.03863950873418479,0.0469934926575771,0.05481921444202683,0.06181142127284935,0.06736532570847689,0.07116401797570968,0.07329413625530251,0.07390638958005304,0.07344630452890367,0.07239960467457052,0.07094190795101608,0.06915479609993039,0.06695085041640764,0.06419602436148132,0.06090952561643108,0.05718708716516203,0.05313978098793677,0.04866554506806115,0.04368692086751213,0.038184480122097665,0.03199663736465591,0.025253723160478324,0.018190030498178907,0.011310270048841187,0.0053351879941972566,0.0004578961899405448,-0.0033649753580553277,-0.0061252650820381544,-0.00814897755835783,-0.009842545286744291,-0.011182162280593709,-0.01221474482854437,-0.01312524321853749,-0.013953973219761025,-0.014615654084766082,-0.015240684250509407,-0.015671262095169586,-0.016106098886827295,-0.01646179731674574,-0.016579198329797568,-0.016639485336499796,-0.016698313102398134,-0.01657039198122481,-0.016380945195457457,-0.016178280402873068,-0.01574169591583378,-0.015199044983847729,-0.01465237265569264,-0.013931880992705481,-0.013162674441949586,-0.012443149950192892,-0.0115311923193958,-0.010633114444152415,-0.009743486591238828,-0.008832343420425258,-0.007965571350801308,-0.00707777603285084,-0.006116679316376851,-0.005263338235468249,-0.004409997154561326,-0.003556656073654402,-0.0027033149927474798,-0.0018499739118405557,-0.0009966328309336334,-0.0001432917500267094,32.4375
-0.03137741886476909,-0.025006552795569806,-0.01863568672637052,-0.012264820657171237,-0.005893954587971956,0.00047691148122732535,0.006847777550426613,0.013218643619628604,0.01749694663340286,0.018572248801039977,0.01572628058795724,0.009441158529214759,0.0005230009714938506,-0.01009385565118028,-0.021029049041154973,-0.03028883452947616,-0.03658386393304677,-0.04062393774399376,-0.04282639702874781,-0.04283466208120343,-0.04093239655485558,-0.037081258973356984,-0.03152883614860061,-0.02422001966348038,-0.015774631404126684,-0.007000062061627403,0.001992691873110407,0.011183134591277908,0.02079525057028188,0.03186449304988716,0.04540967625503196,0.06146729019350455,0.07804599485813007,0.09284521177417646,0.10438827980545358,0.11203179374736193,0.11567546485526313,0.11546841846276738,0.11191619365162446,0.10516303382527618,0.09529954511827811,0.08225519885251083,0.06656356890488704,0.04933069942752855,0.03272142910875734,0.019080446667702037,0.009892460473178018,0.004340181132913278,0.0011928055937973764,-0.0006607028651038031,-0.0018147157843333005,-0.0022593966969441884,-0.002004616644459656,-0.0006443836651074764,0.0018812718436410996,0.005574821963988926,0.010269029470550195,0.015937133641297105,0.022520495994887053,0.029934045786424075,0.0379146186286798,0.04611408311325868,0.053866152580989965,0.060764489324338776,0.06636584727560918,0.07030055506539361,0.07261933359707033,0.07356047085024629,0.07347332563077436,0.07294915776733386,0.07213586000989126,0.07089969789745994,0.06923918472326054,0.06688303107464283,0.06382057069482955,0.060322937410877804,0.05626262018552837,0.051771019695870106,0.04662353949449635,0.04085091637970524,0.03433540663203198,0.027211695513310385,0.01972035292518076,0.012342190212449188,0.005969145006269092,0.0008284587091312332,-0.0031902825882613992,-0.0060913142715009845,-0.008329447604043645,-0.010094687169744541,-0.011405011748260549,-0.012571817260707474,-0.013517708518119799,-0.014376558279789172,-0.01509064429064394,-0.01569263952525298,-0.016172603792940596,-0.016651980292831697,-0.017063383175789096,-0.017216392963042438,-0.01733143986555864,-0.017373102229955913,-0.017270294727436852,-0.01713455494102695,-0.016888072786845603,-0.016439156488642376,-0.015905532478594053,-0.015337437616011139,-0.01459693662889108,-0.013788583035854281,-0.012969027280108123,-0.012091576396408997,-0.011175142677973008,-0.010309516299355963,-0.009386167665667277,-0.00849187896332794,-0.007517066072871298,-0.006552227947666617,-0.005626913725848806,-0.004701599504032684,-0.0037762852822165616,-0.0028509710604004406,-0.0019256568385843179,-0.0010003426167681968,-7.502839495207407e-05,32.4375
-0.03247634234101486,-0.025949771523965146,-0.01942320070691543,-0.012896629889865719,-0.006370059072816004,0.00015651174423370745,0.006683082561283422,0.013209653378335774,0.017531296888488705,0.018685851901181206,0.016047458899269035,0.009837498521644273,0.0009134819808607304,-0.00969457767875929,-0.020747544548780382,-0.030034232354783377,-0.036397926306732185,-0.040442384546407265,-0.04266799010353961,-0.04270322493263725,-0.04071739619481465,-0.03680958713688733,-0.031337813734768676,-0.024051808327597114,-0.015610460488909824,-0.006790994131342541,0.0021699411034066846,0.01129870211352839,0.020880777544255383,0.031908356646945246,0.04542827553928272,0.06135464499886495,0.0778652169239602,0.09260721156042812,0.10411345304746551,0.1117463086585787,0.11533153039586184,0.11516882716931655,0.11164575094838348,0.10485488141957622,0.09498023576598012,0.08202139172343523,0.06642349359328503,0.0492719264037325,0.03283541511278437,0.01929054975377473,0.010095003513313548,0.00455046742016283,0.0014301602537520456,-0.0004852403600545956,-0.0017192900620696262,-0.0023193205112234925,-0.0020734381675000507,-0.000613754034357047,0.0018472153354941517,0.005467265213032555,0.010110371159796334,0.015817132836425607,0.0223631964489993,0.02994465524334583,0.037981657459273954,0.046140891304827535,0.05387659765897176,0.06080077805983458,0.06639505133315554,0.07032106966769198,0.07253703929513784,0.07344035578551855,0.07348135348204712,0.0729828394904016,0.07214545851026732,0.07090324041958111,0.06927783490950275,0.0669257197022373,0.06396128685099507,0.060456563545709684,0.05639150954468406,0.0517546510307808,0.04657568494247325,0.040815344174052776,0.03430432502558648,0.027096085447508127,0.019674688998114916,0.012430107012813942,0.006096473423410597,0.0009463216722582404,-0.0031183862106031533,-0.005982392876553375,-0.008146289026221809,-0.009865025299229373,-0.011235653228768717,-0.012423859579958615,-0.013500546658699649,-0.01442068449185212,-0.015124948426102139,-0.01579262767041473,-0.016316166005319026,-0.01674187404116165,-0.017099206433701098,-0.01727944746761709,-0.017371514899247747,-0.01744499578547021,-0.017349865208087904,-0.01714330188779763,-0.016902559398809937,-0.016456586144463572,-0.01595262079173481,-0.015411776548629191,-0.014731083261349186,-0.01390971024630123,-0.013138351305954891,-0.012215531057031184,-0.011256610683599611,-0.010374615072122664,-0.009411627810263832,-0.008521325362850307,-0.007525733769940313,-0.006611670310566443,-0.00569619168208221,-0.004780713053599693,-0.003865234425117176,-0.0029497557966346594,-0.0020342771681521425,-0.0011187985396696257,-0.00020331991118710882,32.375
-0.03654784543397115,-0.03050307147272554,-0.024458297511479925,-0.01841352355023431,-0.012368749588988696,-0.006323975627743082,-0.0002792016664974681,0.005765572294750718,0.009852823197195597,0.01117657816517584,0.009372757526121513,0.004635947358627789,-0.0024882816424591204,-0.010948423081074205,-0.019693406779771022,-0.02721558188071457,-0.032283232711828834,-0.03543958458473874,-0.03698860114773282,-0.036668130590359754,-0.03471636952270578,-0.031289579101888045,-0.0264810534604859,-0.020314026905108692,-0.013400052445525642,-0.006279097916665532,0.0009726768763142842,0.008355695405384304,0.0160565034468769,0.02496502097348869,0.03623612827979744,0.049944523555329946,0.06458609809408462,0.07819403137201177,0.08925295514409469,0.09703971949783463,0.10135195015274426,0.10230824758644988,0.1001719943690762,0.0950755587743208,0.087015180541041,0.07598712065250712,0.06241800799903321,0.047161563489455764,0.031959695877481986,0.019031629144526142,0.009773784065895614,0.003871317021136541,0.00028987718601928517,-0.002073327265367342,-0.0037282245676362297,-0.004630347331295694,-0.004716174760769691,-0.0036638681584728184,-0.0013883507308654341,0.0020498309443294786,0.006659429565365151,0.012431409175145187,0.019293652072203963,0.02716523120505392,0.03578622825922198,0.04476743142127985,0.053571937716981606,0.06175538483613801,0.06869577884802133,0.07388216328841804,0.07737484396503451,0.07941769257887944,0.08061201100218862,0.08131861434936465,0.08163630330489773,0.08153873479637502,0.08064903293298743,0.07870406441239208,0.07565107227505258,0.07169611316641734,0.06694879409584266,0.06160861426655807,0.05555465047842351,0.0487813933469397,0.041113845558809495,0.0326746865190005,0.023915515801144496,0.01554640667324622,0.008374193624129991,0.0026977713850861026,-0.0014581032209942271,-0.00431836604145526,-0.00641293772005931,-0.008050457092301015,-0.00933158018809325,-0.010485944951576473,-0.011426222681408065,-0.012289057443522785,-0.013035557798756451,-0.013693922164944401,-0.014238643083261202,-0.01477966747367488,-0.015258459896248846,-0.01552917037264585,-0.01576777345917201,-0.016008954201170794,-0.016103435188302956,-0.01618944673602501,-0.016195267705251672,-0.015987865580298268,-0.01570476252951344,-0.0153363277522301,-0.0148251871697685,-0.014242084678204986,-0.01362858851277169,-0.012886280388416582,-0.012124753151553872,-0.01135064922205534,-0.010459970115659028,-0.009568441232733284,-0.008636802897617687,-0.00764665744844979,-0.006698723398708932,-0.005750789348969887,-0.0048028552992308415,-0.003854921249491796,-0.0029069871997527506,-0.001959053150013705,-0.0010111191002746597,32.1875
-0.031415368892318996,-0.025204577214338587,-0.018993785536358183,-0.012782993858377778,-0.00657220218039737,-0.0003614105024169617,0.0058493811755634395,0.012060172853546495,0.016273555310606803,0.01725385315745068,0.01461451426972768,0.008699958667814244,0.000185612171198685,-0.010023570207502672,-0.020470545467066135,-0.029293854830032297,-0.03516740234387472,-0.03908283375275971,-0.04109219308344653,-0.041041393675155025,-0.03902041308133217,-0.03532390427201701,-0.030027378925027725,-0.023017822789022896,-0.015048353855679032,-0.00679090368617621,0.001667647239900399,0.010297500440861421,0.019289975001265385,0.029720319971172013,0.04272131664811186,0.058181549166734486,0.0743239371279564,0.08895004371620156,0.10060010352835226,0.10859556955054533,0.11266829404039758,0.1130454166522212,0.11005317214766837,0.10389465846178439,0.0945329712097671,0.08204276177113975,0.06694108710954605,0.050206870202592284,0.0338065792848507,0.020159855571991646,0.010668535035215665,0.004823684499638139,0.0013805616787855648,-0.000767884569699638,-0.002229314288210484,-0.002944841264483013,-0.002806486002243994,-0.001587226233677262,0.0008156271049850003,0.004343895336525134,0.009000151315657035,0.014793962845847913,0.0216071072529949,0.029236087809571903,0.03751614533183868,0.04599111267902394,0.05410687734746735,0.061436184651244875,0.06739555938227387,0.07155589761530484,0.07404450741764895,0.0750697739407888,0.07513486716504983,0.07461580980686593,0.07370698103987086,0.0723286223679343,0.07052513161521268,0.06804456198384908,0.06475740239968346,0.06105292578092619,0.056792246214053516,0.05212507168272945,0.04694901864968346,0.04109876511920667,0.03458268894946115,0.027460785896306267,0.01997163999342869,0.012752418710721265,0.006430753875293571,0.0013298281998930862,-0.0026001912952196954,-0.005372731695582845,-0.007440631511181575,-0.009169107468651376,-0.010418308833950889,-0.011583426091132339,-0.012500825680392815,-0.013363712910402899,-0.014123734192883645,-0.014723402305321686,-0.015176530261462134,-0.015634820007372353,-0.015972667991988942,-0.016159601967294407,-0.0163108215031028,-0.016376204173519267,-0.0163021220381014,-0.0161414311808775,-0.01597038458343014,-0.015576416205366952,-0.015116823951757764,-0.014596255041429581,-0.013964651369855434,-0.01321926319855986,-0.012489440798283302,-0.01166831421634783,-0.010819947535129121,-0.010017377667817544,-0.009091873586208287,-0.008216813537333077,-0.007305074228443113,-0.006343357216735928,-0.005416865394662873,-0.004490373572591511,-0.003563881750520149,-0.002637389928448787,-0.0017108981063774249,-0.0007844062843060627,0.0001420855377652977,32.125
-0.037335420943748615,-0.030595187880713717,-0.023854954817678818,-0.01711472175464392,-0.010374488691609021,-0.003634255628574126,0.0031059774344607757,0.009846210497498283,0.01438861581380858,0.01601115243648399,0.014184645441843653,0.008965539471524224,0.0010397499562244657,-0.008444623448554312,-0.018445245952425353,-0.026997326067344594,-0.032773603543286775,-0.03649854141142844,-0.0384771401806251,-0.0385589188430998,-0.03672542965406172,-0.03313434915132679,-0.028021370220582594,-0.021224848942591964,-0.013487611751324602,-0.005440541750862997,0.0028208164592818316,0.011160525077759694,0.019933943401111064,0.030028339322541408,0.04240053807688806,0.05701211774978749,0.07232280824161383,0.08606535939175126,0.09686439797489872,0.104181542559509,0.10781312210502096,0.10792491824985302,0.10492611371519484,0.0989514952821928,0.08997768367983766,0.07809271210855125,0.06365505059620091,0.04772024420528365,0.03227628674203409,0.01943279648089797,0.010566464697610821,0.005079108176727426,0.0018715323912946466,-0.00017769701279871016,-0.0014497727898588957,-0.0020570020979984514,-0.0019569327983755837,-0.0008105100602402675,0.0015630060561824585,0.004962302778737708,0.009385494815712193,0.014914145840174847,0.021341204516597934,0.02871289356724978,0.036672347115984,0.044872969165197486,0.05269833547523687,0.05987046474427413,0.06577698445607477,0.07014203012757661,0.07290105532407,0.07427763249004375,0.07478846385610718,0.07490212710124139,0.07482621930331214,0.07440715533827419,0.07357974380320023,0.07194744500773212,0.06941736699087463,0.06625642736887523,0.062327677890176,0.05773222972613611,0.05237471026876923,0.04620582079353798,0.03930636424176732,0.031505142895774926,0.02326479741940971,0.015189431505602414,0.008051601315629264,0.0022854531482342268,-0.0021350101770500327,-0.005305806236427401,-0.007668390968442415,-0.009609216099022674,-0.011041144768192344,-0.01232453229553216,-0.013374987070403258,-0.014385106525198301,-0.015265306228243682,-0.015907744186010913,-0.016468502707182996,-0.01700232140203118,-0.017453220336788637,-0.017710612268589998,-0.017860162206862918,-0.017958759655937687,-0.017879759318092915,-0.017750368771034645,-0.01755294234583251,-0.017120549037628927,-0.016630637794523964,-0.01611160375574292,-0.015442259046944993,-0.01462596081039149,-0.013828482415677478,-0.012885571956695834,-0.011983211807196156,-0.011096793949026238,-0.010137494682256437,-0.009130980434421803,-0.00814363331900542,-0.007097279880492964,-0.006127867730574456,-0.005158455580657634,-0.004189043430740811,-0.0032196312808239896,-0.0022502191309071665,-0.0012808069809903452,-0.00031139483107352206,32.0
-0.03613039398576445,-0.029483314826815595,-0.022836235667866737,-0.016189156508917883,-0.009542077349969025,-0.0028949981910201678,0.0037520809679286865,0.010399160126880152,0.01503582385558965,0.016607574243984197,0.014465043468708189,0.00916160499770329,0.0012788702265001234,-0.008354557993440342,-0.01838165165625139,-0.027078457247093183,-0.032945743529524285,-0.036764270455718735,-0.03871907923087982,-0.03868356699284103,-0.03695941772688757,-0.03339914292237783,-0.028294288979384026,-0.021464467928920004,-0.013692704132227894,-0.005715464704763352,0.0025387608895195233,0.01101317828515649,0.019805050901984343,0.029948832135386346,0.04241589375493827,0.057234817082131684,0.0726515062484497,0.08661116015565852,0.09757194018086411,0.10492156504219709,0.10860067570282363,0.10877323196835825,0.10573332500334992,0.09967910636088899,0.09058094131306761,0.07852628084042716,0.06395762531195497,0.04792303780215178,0.03231903804483886,0.01935244612593588,0.010436055893973542,0.004964231651497801,0.0017986375413970035,-0.00018715797148191975,-0.0015133883551135146,-0.0022009226688954496,-0.0020370391730370275,-0.000811338598586699,0.0015514436987221127,0.005057329553993821,0.009531204665954895,0.01502427951660902,0.021514158851435677,0.028881998519778924,0.03678175036660217,0.04496520861550765,0.0528055383870029,0.0599853740409151,0.06585487164736659,0.0701843720185181,0.07290471529059463,0.07427870562812586,0.07478067452185778,0.0748175022737359,0.07467573201808174,0.07414015365349115,0.0732025389975625,0.071496733933423,0.06887287273563629,0.06558705758145338,0.0616098262693716,0.056961185226762724,0.05164362281524009,0.04554826491967888,0.038606565472168654,0.030913181748483096,0.022809749209064385,0.01483456682720022,0.007862741615090547,0.00218595932105791,-0.0022222562224642898,-0.005361208274224258,-0.0076806267231502015,-0.009619707394006928,-0.011051593611743389,-0.012306059646444585,-0.01335221663594945,-0.014346565936663358,-0.015093671627470004,-0.01584502412209688,-0.016443906406132202,-0.016965400643990696,-0.017470239448116914,-0.017649683498597735,-0.01779045840960634,-0.017870815900641684,-0.0178091542998616,-0.017677967875603207,-0.017518447307106923,-0.017130014059255388,-0.016602531164447185,-0.016021747563879966,-0.015358267412360835,-0.014520336522665048,-0.01375997615899761,-0.012820486937320356,-0.011903608628170161,-0.011036663442062205,-0.01004206530518687,-0.009093070542146472,-0.008054527939178512,-0.00699438635740625,-0.006007975793469868,-0.005021565229535192,-0.004035154665600515,-0.0030487441016658397,-0.002062333537731163,-0.0010759229737964861,-8.951240986181108e-05,31.9375
-0.03493590049552972,-0.02827761983032558,-0.02161933916512144,-0.014961058499917301,-0.00830277783471316,-0.0016444971695090196,0.005013783495695118,0.011672064160901944,0.01612790093602143,0.017408435915028487,0.015152643849137285,0.009398127427384675,0.0011671487688842566,-0.008655163525258441,-0.019069166763653413,-0.027674960885684514,-0.0337031110596304,-0.03768389640828177,-0.03969371869814779,-0.03984382868625259,-0.03803567972349708,-0.034271303665101296,-0.02889726884261193,-0.021935344178566,-0.014046405621640334,-0.0057771224820041146,0.0026285740032718804,0.011251861128836933,0.020230741298154945,0.030559037340995084,0.04329469583377055,0.05840770680958199,0.0741354174848909,0.08835640224582397,0.09951902716740463,0.10702319985139572,0.11071820376080693,0.11085964995835616,0.1078079805370139,0.10162784224563118,0.09239817332787487,0.08010087088945836,0.06528812333412927,0.048811949714323295,0.03292158033980611,0.019726507016901238,0.010635241526665649,0.005120408828851526,0.0019795215805262427,-4.5633195769014594e-05,-0.001367792800913581,-0.002092259468425939,-0.0018766087820104643,-0.0005838910263517048,0.001805744489350075,0.005330378341132461,0.009867347295694962,0.015458792297647827,0.021911118983686445,0.029325468962742494,0.037336659703310536,0.04557474651321338,0.053528540685686125,0.06078956580045041,0.06665756701740873,0.07086183638904697,0.07338738564125122,0.07450580831632714,0.07470093993851507,0.07438287773365526,0.07374321094476959,0.07274464433459789,0.07127576005275907,0.06902011669995546,0.06596942644568478,0.06233451097834811,0.05816260758994111,0.05350020165235345,0.04826499968731174,0.042331263943748594,0.035694950762427,0.028396145839667347,0.02061273676322559,0.01313265225756493,0.006603947198087182,0.0012733683449269522,-0.002757859146305572,-0.005613233975695368,-0.007818849577442897,-0.009600967066126748,-0.011013340374661739,-0.012216295578993652,-0.013186138841114048,-0.014064598746345667,-0.01482146481576096,-0.015448248706829466,-0.015936345111670715,-0.01642399036444836,-0.016768085714312993,-0.016880639799520942,-0.016984170843456273,-0.01703119091408795,-0.016931185539983115,-0.016763390390983856,-0.016563162421410278,-0.01617710992962791,-0.015683917177401096,-0.015113978446350016,-0.014405786671799687,-0.013614148474813377,-0.012844349379573907,-0.011942229055005187,-0.011059825746550674,-0.01015327744802404,-0.009186291482306605,-0.00822455224799587,-0.007260858021409373,-0.006254772210177304,-0.0053001716425972525,-0.0043455710750188725,-0.0033909705074404925,-0.002436369939862114,-0.0014817693722837342,-0.0005271688047053542,0.0004274317628730241,31.9375
-0.03340063116343449,-0.026731978985794873,-0.020063326808155257,-0.013394674630515638,-0.006726022452876023,-5.7370275236404145e-05,0.006611281902403211,0.0132799340800455,0.01775884747111834,0.019129955519361405,0.016742863985741804,0.010990125678734345,0.0025834527232624195,-0.0075258319908041325,-0.01819917595226358,-0.027127219606638643,-0.03324626693394337,-0.03752911498231419,-0.039651961081523995,-0.03996403269906219,-0.038209514234321236,-0.03452300882853298,-0.02920637416407889,-0.02219680951248657,-0.014183239568637143,-0.005850429130825388,0.0028915087597952195,0.011804884539433638,0.020999975154410176,0.0316157552389973,0.044705744760864016,0.060227399487100375,0.07623868811230837,0.0905422111087799,0.1017119032515587,0.1091980791249948,0.11281543030891181,0.11267187418990114,0.10923844599659434,0.10264089871729513,0.09295520368107274,0.08034101901774804,0.06521256110826085,0.04855417946290643,0.032509424054754515,0.019301757805215824,0.010334943770341174,0.005056980269425622,0.002092467669673219,0.0002361002884694253,-0.0008853219634160952,-0.0013159596533865382,-0.000979109050805354,0.0003341988038036943,0.002756842480494314,0.006235425214759427,0.010868316113645303,0.016489732654915545,0.022892473744945734,0.030223182052208197,0.038142228899211574,0.046208044690819426,0.053859332019046344,0.06078583042687978,0.06637694069640261,0.07031953409845484,0.07269332695140028,0.07377832755884652,0.07376999333411585,0.07335607821194866,0.07259299154457924,0.07159266810355029,0.07008457029517517,0.0677093884047743,0.06469261552570524,0.06105894766155245,0.05694465479849372,0.05210974012740685,0.046817561541885905,0.04076990893582748,0.03397141844723099,0.02669499083740145,0.01910056384759544,0.01165039831919581,0.005114670422427059,-0.000125157686539856,-0.004090192161243213,-0.006888020266385765,-0.009000980748382905,-0.01059065293821087,-0.011861694367400918,-0.012898565729001091,-0.013951834948350247,-0.014708535651315552,-0.01545587388104469,-0.01605079681911164,-0.016474381085121788,-0.016862770389120686,-0.017204527721413277,-0.017388475967250544,-0.017447663394394984,-0.017529887195956773,-0.017404747548867092,-0.017175141461486725,-0.016949648368129185,-0.016445481890276746,-0.01590606633207061,-0.015421310299694332,-0.0147212173828854,-0.013966555137483926,-0.013107516649029188,-0.012166362595697337,-0.011198582317901868,-0.01028483018527483,-0.009287898160370065,-0.008360526244904272,-0.007554036666925518,-0.006771413277947793,-0.006025191534924975,-0.005278969791903858,-0.004532748048882741,-0.0037865263058616244,-0.0030403045628405075,-0.0022940828198193906,-0.0015478610767982737,31.3125
-0.0343714652273966,-0.02764424119049677,-0.020917017153596944,-0.014189793116697116,-0.007462569079797289,-0.0007353450428974617,0.005991878994002366,0.012719103030904873,0.017173208085859506,0.018501074457143954,0.016172152020891464,0.010588053880934435,0.0023207035019494632,-0.007684450239824061,-0.01847662575141437,-0.027549728457018207,-0.033555435126627446,-0.03773048727601126,-0.039800873380262655,-0.04015707062914185,-0.03832044462428229,-0.034699696440822846,-0.029309220975813143,-0.02234592341120847,-0.014324552960625752,-0.005903824094045205,0.002892156486019583,0.011854821107168989,0.02113378984076077,0.031866599747384844,0.045025109951230206,0.06045812969952622,0.07632666429850879,0.09060512644546703,0.10176800629451557,0.10922482173055169,0.11276085264246173,0.11245544015608336,0.10893179012231391,0.102307960601909,0.0926734858640225,0.08017080753166564,0.0650577761208768,0.04836379777230921,0.03232605482282841,0.019248230233633576,0.010356870567636888,0.005044330215264629,0.002169621321624754,0.00042674400643803674,-0.0006975960731106368,-0.001183222537121436,-0.0009160800290843234,0.00034701563886974855,0.002728317043066606,0.00621830599890778,0.010873856373680463,0.016463980284495385,0.022840802057324305,0.03012613997870151,0.03802491223066582,0.04610239473185956,0.053768767659111996,0.060759204716607756,0.0664568515416511,0.07040740482144794,0.07280173491939161,0.0739526028670416,0.0740015871364485,0.07354795335374954,0.07284912679289554,0.07186256514972109,0.07032031162282981,0.06797424197797358,0.0650192075683018,0.061340754938328745,0.057090197889599334,0.05225700489466799,0.04685899993039697,0.04082586424136853,0.03402725660388888,0.026741050102928453,0.019141811139288756,0.011735831132896004,0.005144126390281786,-9.215991285470148e-05,-0.004051869469090533,-0.006856874851184038,-0.009002610234272252,-0.010578901223577339,-0.011838594954830754,-0.012883894292314351,-0.013939652775611554,-0.014781324487074591,-0.01553854492948604,-0.01606468701196837,-0.016506775924374606,-0.01687791274208379,-0.01720802726989791,-0.017384891787513186,-0.017472202131025905,-0.01752140354532869,-0.017327963634001933,-0.017180268914053443,-0.01694055904451688,-0.01648542334295555,-0.01595578884673265,-0.015488529221823505,-0.014825549664181826,-0.014109622942785102,-0.013251954890665975,-0.012344687325268383,-0.011372620103887548,-0.010424674061346617,-0.00942090368518146,-0.008508515119324999,-0.0075846359694000005,-0.006715585905660264,-0.0058934230909919155,-0.005071260276325198,-0.004249097461658481,-0.0034269346469917635,-0.0026047718323250445,-0.0017826090176583272,-0.0009604462029916098,31.3125
-0.03415900577289026,-0.027476831427681318,-0.020794657082472377,-0.014112482737263437,-0.0074303083920544966,-0.0007481340468455527,0.005934040298363384,0.01261621464357508,0.017131515742864662,0.018406790250088293,0.016082096613912713,0.010596875391512073,0.0022811137727336553,-0.007517325323037376,-0.01798779519345386,-0.02702096485696328,-0.03317538303950621,-0.03732727279540792,-0.03939877670190928,-0.03951121789539678,-0.03765442617075184,-0.03394735107292943,-0.028752139237821748,-0.021879160640967052,-0.013933913020852609,-0.0054951685635874345,0.003339726491704516,0.012111011108532285,0.021192879258229717,0.031692085892084845,0.044649867590267005,0.05985568860469796,0.07562908968747242,0.08983515217902516,0.10087512092185058,0.10825979691000082,0.11177509487966149,0.11154367333888704,0.10811093467730162,0.10161698601783459,0.09207403776709464,0.07965895510096695,0.06460624160528299,0.04807554708221763,0.03204032618122812,0.01897753389907038,0.01003697597513472,0.004832740868783487,0.0019723820035588767,0.00025112959726400854,-0.0008838819634707831,-0.0013007281044986165,-0.0009838627078935938,0.0003081320296587881,0.0028216204035404237,0.0062879154875015485,0.010836966882665862,0.016341089865229884,0.022699325263768447,0.02988947728054359,0.037753638668791105,0.04574896363240594,0.05335536386259631,0.060242638365095906,0.0660091790934872,0.07007689876056288,0.07250696717298678,0.07367107787753131,0.07371333142881677,0.07345841495667367,0.07294898063079598,0.07215163509997473,0.07093351160109777,0.06891171903392171,0.06618902847172786,0.06278345021896645,0.05872761662806687,0.05397976336124469,0.04853523383072957,0.04248900793182133,0.03565917071816173,0.02818206780442665,0.020287720131255377,0.01253450149366038,0.005725682341532286,0.00022480266329080097,-0.003940107419349328,-0.006851996773363058,-0.009019756154071077,-0.010660161499544114,-0.01196288269608495,-0.013074828746190826,-0.014115929433720902,-0.01498248961544722,-0.015750536693254213,-0.016418603026638386,-0.0168915637681514,-0.017367604742819866,-0.017761639039478614,-0.017998309659930017,-0.018090154965018677,-0.018163591347248723,-0.01802644849575607,-0.017791934038513414,-0.017500688934154462,-0.017031116449112378,-0.01649276416961054,-0.016013262462396698,-0.015251285255807764,-0.014470500507951935,-0.01365449238801233,-0.012727740826624352,-0.011686386472834326,-0.010743001652406818,-0.009747035440113598,-0.008780059657518931,-0.007902356279377161,-0.0070627934353075595,-0.006225363552263043,-0.005387933669220157,-0.004550503786177272,-0.0037130739031343857,-0.0028756440200914998,-0.0020382141370486138,-0.0012007842540057278,31.3125
-0.0350367992788477,-0.028185340536518694,-0.021333881794189685,-0.014482423051860673,-0.007630964309531665,-0.0007795055672026527,0.006071953175126356,0.012923411917458074,0.01744765263174381,0.018919896945761988,0.01686704651426773,0.011368461660253033,0.0031595963383466157,-0.00679934723906796,-0.017557506946397832,-0.026341739679117446,-0.032472386842193154,-0.03674421295519893,-0.038916272534678345,-0.03916519036377703,-0.03713379061118218,-0.03349321574779628,-0.028263180047988147,-0.02130498313074986,-0.013273929688080067,-0.004942859828207082,0.003611813589618712,0.0123492426626378,0.021456955393527512,0.03192894015034281,0.04492171792649557,0.060235543214818936,0.07590574986486621,0.09000226525466928,0.10093207278948337,0.10817142530528587,0.11160546388200236,0.11128140508232175,0.10772108639394665,0.1011701832515284,0.09157617586962392,0.0790760503445132,0.0640585308764499,0.04754594867432061,0.03155225833946933,0.018626090663231416,0.00988677772032872,0.004825508743672412,0.002085694652224164,0.00034079243060352346,-0.000709124015864055,-0.0010315385768592564,-0.0007437968069698535,0.000553529635362912,0.0030590028478487243,0.006495738197207144,0.011036380745371749,0.01656760336862186,0.022948613521255042,0.03006118085656598,0.0378286418242042,0.04575455431355726,0.053354771137812576,0.06019449070387916,0.06584696671356934,0.0699363284154537,0.07242751592187498,0.07353566274957751,0.07365888848511291,0.07337354302720835,0.07277420696659428,0.07199444704667997,0.07065721279321253,0.06869820931231789,0.06606313248778246,0.06271010215937636,0.05869559755726879,0.053969369862451474,0.048600156362555345,0.04260338562012985,0.03584687337944931,0.028405974435857097,0.020534845325114476,0.012818370503249023,0.005915333001271332,0.0003222670956394832,-0.003877564588752882,-0.006970300136082043,-0.009207976267661185,-0.010919145789800858,-0.012232472222925657,-0.01339918122890753,-0.014541687483841098,-0.01541591739547099,-0.016150239553515966,-0.016735916635815452,-0.017256764262336466,-0.017775621106593042,-0.018127067908944756,-0.018364081597428843,-0.01849879119732318,-0.018546440939486104,-0.018369777446685293,-0.018042478095874514,-0.017799786991302854,-0.017278054572664188,-0.01674529911889462,-0.016241963003033016,-0.015519309041037889,-0.014643217379327306,-0.013731254770518363,-0.012780453474383571,-0.01182161531651452,-0.010839072103163198,-0.009848915990967318,-0.008955736781486852,-0.0081197925621093,-0.007325839101976367,-0.006573211138838111,-0.005820583175701544,-0.005067955212564978,-0.004315327249428411,-0.0035626992862918434,-0.0028100713231552776,-0.00205744336001871,31.1875
-0.03545427460355191,-0.028573846629393176,-0.02169341865523444,-0.014812990681075701,-0.007932562706916967,-0.0010521347327582323,0.005828293241400509,0.012708721215561944,0.01748633542651734,0.018986605713952675,0.016861935635990966,0.011437406591193926,0.0032789311218873562,-0.006728168812219571,-0.01731990765452684,-0.026223893690160354,-0.03224432100397906,-0.03649762087957688,-0.038564495234929094,-0.03894120380069391,-0.0370520680747346,-0.033483895339379136,-0.028304322682763578,-0.021266177524319977,-0.013246157984670347,-0.004970893774507454,0.0036457321122293183,0.012443493563909298,0.02147751215896746,0.031946347040762824,0.04487185233332021,0.05997550323066781,0.07556068767407724,0.08949283536681844,0.10034331329087055,0.10763680979132784,0.1109878361344147,0.11061696323540647,0.10712550018324277,0.1006367371628348,0.0910915891977452,0.07861095188160952,0.06378954090112217,0.04744564253442086,0.03165657023062173,0.01877688770429529,0.009984397296083873,0.0048646066589883115,0.0021026424130553794,0.0004045792540842227,-0.0006609219053889043,-0.0010757085185969621,-0.0007768995750066538,0.0005344977853529232,0.002967122968512962,0.006459032937481212,0.010972911058630306,0.01655539852608496,0.02294601456997569,0.030120666144441557,0.0379243853071737,0.04584058772829189,0.05342581423084963,0.060257572105290924,0.06599565283074839,0.07004449838350432,0.07241525409622424,0.07359585012668803,0.07371664640547783,0.07338585440329788,0.07296273637804761,0.07228331248476792,0.07108075683845799,0.06907619703118653,0.06647346758759265,0.06306912020743653,0.059054354360008825,0.0543455616586805,0.04892190437752753,0.04289821990460787,0.03609175053250132,0.028544263671246226,0.020687668549086245,0.01291269551664466,0.005953685898453517,0.00047748370735808845,-0.003683054263347438,-0.006721444829349437,-0.009056539155867654,-0.01081264632456188,-0.01223757526667705,-0.013375723396494274,-0.014496896044380514,-0.015357036173255439,-0.01612016041135422,-0.01678588253427767,-0.017332114184713455,-0.017802517111420467,-0.018189789834088043,-0.018448928014378956,-0.018482713453498483,-0.018493067945727217,-0.018325556906260202,-0.018080341195982,-0.017889895783851858,-0.01741048095449451,-0.016874622187925438,-0.016388641543780003,-0.01564440551797063,-0.014805746822351874,-0.013921109031578543,-0.012962169023035527,-0.011956642995281961,-0.010984001216382919,-0.009994898921418525,-0.00903014715524798,-0.008187276774513105,-0.007389061290992323,-0.006620612049522325,-0.005852162808053998,-0.005083713566585671,-0.004315264325117344,-0.0035468150836490183,-0.002778365842180691,-0.002009916600712364,31.1875
