Instrument Serial Number,Temperature,Notes,Timestamp,Integration Time,SAMPLE NO,SAMPLE NO,plant,wetlab ID,sample type,Lab,Brix,908.1,914.294,920.489,926.683,932.877,939.072,945.266,951.46,957.655,963.849,970.044,976.238,982.432,988.627,994.821,1001.015,1007.21,1013.404,1019.598,1025.793,1031.987,1038.181,1044.376,1050.57,1056.764,1062.959,1069.153,1075.348,1081.542,1087.736,1093.931,1100.125,1106.319,1112.514,1118.708,1124.902,1131.097,1137.291,1143.485,1149.68,1155.874,1162.069,1168.263,1174.457,1180.652,1186.846,1193.04,1199.235,1205.429,1211.623,1217.818,1224.012,1230.206,1236.401,1242.595,1248.789,1254.984,1261.178,1267.373,1273.567,1279.761,1285.956,1292.15,1298.344,1304.539,1310.733,1316.927,1323.122,1329.316,1335.51,1341.705,1347.899,1354.094,1360.288,1366.482,1372.677,1378.871,1385.065,1391.26,1397.454,1403.648,1409.843,1416.037,1422.231,1428.426,1434.62,1440.814,1447.009,1453.203,1459.398,1465.592,1471.786,1477.981,1484.175,1490.369,1496.564,1502.758,1508.952,1515.147,1521.341,1527.535,1533.73,1539.924,1546.119,1552.313,1558.507,1564.702,1570.896,1577.09,1583.285,1589.479,1595.673,1601.868,1608.062,1614.256,1620.451,1626.645,1632.839,1639.034,1645.228,1651.423,1657.617,1663.811,1670.006,1676.2
M1-1000464,31.875,,21-05-2024 07:45,9.1,201-P1-P-1.sam,201,P1,201-P1,Pulp,WVC,5.233333333,0.7668732,0.7474302,0.727655,0.7078089,0.6962997,0.6938848,0.6961817,0.7115357,0.7312258,0.7408145,0.7445108,0.7450746,0.7429706,0.737583,0.7324741,0.725758,0.7160017,0.7021378,0.6901523,0.678108,0.6654766,0.6543489,0.6447815,0.6380073,0.6332957,0.6318819,0.6319857,0.6336693,0.6371653,0.6418554,0.6492131,0.657636,0.6660718,0.6758426,0.6882626,0.706996,0.7384213,0.7856638,0.8389588,0.8844976,0.91336,0.9279888,0.9349991,0.9386991,0.9414268,0.9449353,0.9479135,0.9483135,0.9467618,0.9457172,0.9427496,0.9397616,0.9368514,0.9339637,0.9313236,0.9295041,0.9281766,0.9277903,0.9298103,0.9338214,0.9400808,0.9500239,0.962205,0.9781303,0.9968222,1.018963,1.044243,1.071194,1.09798,1.124269,1.14755,1.167423,1.185336,1.201953,1.221634,1.244784,1.274608,1.304472,1.331047,1.349957,1.362634,1.368732,1.372481,1.374081,1.373634,1.373722,1.373194,1.371506,1.369893,1.367411,1.365356,1.363095,1.359294,1.357177,1.353882,1.349687,1.34563,1.342102,1.337843,1.333673,1.329325,1.324356,1.320025,1.315304,1.310871,1.305566,1.301164,1.296244,1.291905,1.287721,1.283246,1.279174,1.275314,1.272048,1.268339,1.265409,1.263108,1.260378,1.258111,1.256344,1.25423,1.252375,1.25084,1.250441,1.249564
M1-1000464,31.8125,,21-05-2024 07:46,9.1,201-P1-P-2.sam,201,P1,201-P1,Pulp,WVC,5.233333333,0.7717095,0.7526944,0.7326177,0.7133409,0.7009713,0.6989537,0.7010868,0.7179397,0.737684,0.7463364,0.7504835,0.7514495,0.7495607,0.7438815,0.7384,0.7313069,0.7215067,0.7081267,0.6963658,0.6840163,0.6715962,0.6603863,0.6504216,0.6438956,0.6391151,0.6373888,0.6374729,0.6391007,0.642561,0.6475716,0.6547282,0.6632224,0.672142,0.6818491,0.6939951,0.7128567,0.7447697,0.7917508,0.8451802,0.8905061,0.9194715,0.9335675,0.9407334,0.9448045,0.9467901,0.9502969,0.9535761,0.9544287,0.9529808,0.9514644,0.9489398,0.9457036,0.9426597,0.9400845,0.9371695,0.9352343,0.9342464,0.9340754,0.9357111,0.939855,0.9460335,0.9559696,0.9685515,0.9838711,1.002913,1.024938,1.050152,1.077097,1.103584,1.129565,1.152492,1.172163,1.189105,1.205799,1.22497,1.247852,1.276171,1.305459,1.331343,1.349861,1.362164,1.368292,1.371635,1.373631,1.373186,1.373276,1.372033,1.370723,1.368509,1.367092,1.36463,1.362119,1.358949,1.356205,1.353275,1.349108,1.345341,1.341823,1.337273,1.332892,1.328808,1.323849,1.319531,1.315289,1.31061,1.305782,1.301157,1.295785,1.291906,1.288138,1.283443,1.279558,1.275902,1.272445,1.268903,1.266164,1.263661,1.261331,1.259037,1.257239,1.254757,1.253131,1.251883,1.250865,1.25059
M1-1000464,31.875,,21-05-2024 07:46,9.1,201-P1-P-3.sam,201,P1,201-P1,Pulp,WVC,5.233333333,0.777294,0.7583976,0.7387401,0.719724,0.7073277,0.7050284,0.7078581,0.7239341,0.7443944,0.7537353,0.7574997,0.7587175,0.7565275,0.7503561,0.7453721,0.7385214,0.7280306,0.714395,0.7026966,0.6903391,0.6780009,0.6662236,0.6563489,0.6497252,0.6452569,0.6428431,0.6431818,0.6452393,0.6485766,0.6535643,0.660931,0.6694224,0.6780831,0.6878884,0.7002905,0.7193958,0.7516981,0.7994274,0.8533748,0.8993878,0.9289892,0.9436212,0.9503103,0.9541153,0.9566875,0.9609002,0.9635225,0.9636546,0.9625915,0.9614223,0.9582309,0.9553193,0.9527396,0.9497726,0.9466226,0.9449669,0.9433366,0.9433562,0.9455071,0.9496496,0.9559075,0.9660432,0.9786488,0.9943082,1.013725,1.035762,1.061365,1.088407,1.11464,1.141031,1.163799,1.18356,1.201032,1.217363,1.236187,1.258178,1.285776,1.31444,1.337816,1.355069,1.365876,1.371186,1.374418,1.374887,1.374805,1.374859,1.374312,1.372902,1.370276,1.368824,1.366611,1.363737,1.360584,1.358713,1.355371,1.351142,1.347899,1.344319,1.340543,1.335804,1.332458,1.327901,1.32423,1.31989,1.315122,1.310649,1.306818,1.301983,1.297755,1.294315,1.289925,1.286164,1.283051,1.279458,1.27625,1.273848,1.271288,1.269282,1.266799,1.26527,1.263347,1.261552,1.260027,1.259645,1.259162
M1-1000464,31.8125,,21-05-2024 07:46,9.1,201-P1-P-4.sam,201,P1,201-P1,Pulp,WVC,5.233333333,0.7921172,0.7728398,0.7530864,0.7338793,0.7219594,0.720245,0.7234969,0.7403798,0.7617405,0.7706495,0.7744465,0.775488,0.774079,0.7688363,0.7623886,0.7555225,0.7459353,0.7320992,0.7200325,0.7071688,0.6941116,0.682966,0.673019,0.6661482,0.6615054,0.6589615,0.6591083,0.6612038,0.6648117,0.6697569,0.67709,0.685746,0.6946724,0.7048702,0.717638,0.7368336,0.7694557,0.8178174,0.8717867,0.9180081,0.9471169,0.9617592,0.9694057,0.972701,0.9752727,0.9788292,0.9817386,0.982953,0.9812853,0.9796385,0.9768321,0.9741647,0.9715959,0.9688236,0.965721,0.964046,0.9627563,0.9627371,0.9646949,0.96894,0.975201,0.985683,0.9980924,1.013868,1.032477,1.054884,1.079592,1.106903,1.132713,1.158395,1.18032,1.199645,1.216335,1.231996,1.249606,1.270976,1.296067,1.322821,1.3446,1.35902,1.369465,1.373231,1.376417,1.376841,1.376311,1.376316,1.375353,1.373614,1.371964,1.369745,1.367336,1.365352,1.361828,1.359892,1.356852,1.352893,1.349882,1.346543,1.342719,1.339001,1.335312,1.331191,1.327205,1.323544,1.319628,1.315064,1.311389,1.306874,1.303248,1.299918,1.296265,1.292632,1.289238,1.286373,1.283264,1.281024,1.278791,1.276968,1.27484,1.27331,1.271171,1.269791,1.268718,1.26774,1.267529
M1-1000464,31.875,,21-05-2024 07:46,9.1,201-P1-P-5.sam,201,P1,201-P1,Pulp,WVC,5.233333333,0.8001206,0.781419,0.7624902,0.7434524,0.7321526,0.7305985,0.7345295,0.7513952,0.7727857,0.7823424,0.7863232,0.7873972,0.7854803,0.7799978,0.7743661,0.76802,0.7575104,0.7438409,0.7318188,0.7185496,0.7055488,0.6942447,0.6846409,0.6775104,0.6727298,0.6703247,0.6704403,0.6726089,0.6761065,0.6812657,0.6888201,0.6973524,0.7065533,0.717002,0.7297378,0.7491391,0.782157,0.8306917,0.8848947,0.9309552,0.9601747,0.9746021,0.9814381,0.9852215,0.9876256,0.9916518,0.9942659,0.9949309,0.9933206,0.99271,0.9896627,0.9865844,0.9839069,0.98136,0.9788743,0.9770418,0.9758981,0.9762909,0.9778735,0.9824065,0.9886606,0.9988875,1.0113,1.026751,1.045756,1.067464,1.092206,1.118132,1.143548,1.168272,1.190144,1.207912,1.224192,1.23936,1.256068,1.27564,1.299916,1.324946,1.345004,1.359471,1.36955,1.373588,1.375675,1.376522,1.376756,1.375938,1.37501,1.3733,1.371629,1.369175,1.367681,1.365048,1.361838,1.359936,1.356569,1.352893,1.349608,1.346548,1.342733,1.338733,1.335328,1.331198,1.327217,1.323566,1.319903,1.31555,1.311856,1.307568,1.304127,1.30101,1.297342,1.294123,1.290925,1.288224,1.285122,1.283274,1.281024,1.279173,1.277069,1.27578,1.273907,1.272688,1.271445,1.270943,1.27047
M1-1000464,31.3125,,21-05-2024 07:50,9.1,201-P2-P-1.sam,201,P2,201-P2,Pulp,WVC,5.1,0.6934167,0.6725184,0.6517499,0.6325011,0.6196474,0.6161949,0.6190302,0.6344628,0.6536772,0.6621526,0.6653796,0.6658375,0.6640361,0.6583421,0.6528652,0.6457821,0.6352366,0.6217477,0.6097471,0.5968606,0.5840913,0.5724596,0.5632368,0.5564108,0.5514516,0.5493986,0.5496145,0.5514002,0.5545588,0.5593151,0.5663807,0.5743901,0.5830492,0.5929156,0.6050236,0.6238925,0.6555001,0.7029322,0.7572416,0.8037746,0.8340533,0.8491364,0.8569509,0.8614852,0.863753,0.8675553,0.8702625,0.8712255,0.8697615,0.8678626,0.8647721,0.8614846,0.8579267,0.8546581,0.8515309,0.8492081,0.8474098,0.847142,0.8485301,0.8523723,0.8587362,0.868668,0.8813804,0.8978829,0.9175541,0.9408242,0.9676462,0.9967592,1.025903,1.054553,1.08097,1.103314,1.123299,1.142935,1.165717,1.194154,1.229805,1.26885,1.304994,1.331037,1.349447,1.359564,1.366048,1.368574,1.3697,1.370566,1.370002,1.368631,1.367097,1.364863,1.362524,1.359418,1.355776,1.35246,1.348702,1.343629,1.338811,1.334152,1.329078,1.323242,1.317767,1.311661,1.3059,1.300029,1.293796,1.287469,1.281787,1.275538,1.269921,1.264666,1.259204,1.253841,1.249325,1.244373,1.239884,1.236279,1.233057,1.229765,1.226684,1.224226,1.221577,1.219637,1.217923,1.216804,1.216057
M1-1000464,31.3125,,21-05-2024 07:50,9.1,201-P2-P-2.sam,201,P2,201-P2,Pulp,WVC,5.1,0.707369,0.6863154,0.6655248,0.6461596,0.6331225,0.6305106,0.6323858,0.6491488,0.6689995,0.6777596,0.68089,0.6810264,0.6793891,0.6732965,0.6680998,0.660656,0.6501721,0.6363227,0.6245076,0.6118847,0.5986626,0.5872292,0.5775667,0.570357,0.5656806,0.5633962,0.5637304,0.5657398,0.5688779,0.5737033,0.5810645,0.5894925,0.5982111,0.6081439,0.6203826,0.6391383,0.6715051,0.719893,0.7748551,0.8219729,0.8525415,0.867418,0.8753117,0.8794459,0.8816887,0.8855694,0.8889922,0.8898321,0.8880655,0.8861909,0.8829793,0.8798057,0.8765708,0.8735245,0.8703313,0.8680359,0.8664199,0.8661836,0.8673025,0.8715722,0.8780335,0.888261,0.9011837,0.9176965,0.9373875,0.9611607,0.9880973,1.017445,1.046268,1.075112,1.10098,1.123315,1.143451,1.163101,1.185155,1.212516,1.247054,1.284093,1.31724,1.341762,1.357835,1.366781,1.371712,1.374502,1.375063,1.375097,1.374816,1.373653,1.371977,1.369937,1.367478,1.364585,1.361121,1.358232,1.354317,1.349674,1.344966,1.340981,1.336272,1.33051,1.325635,1.320268,1.314298,1.30941,1.303613,1.297703,1.292439,1.286538,1.28111,1.276226,1.271115,1.266137,1.262236,1.2578,1.253106,1.249943,1.246946,1.243912,1.240965,1.238723,1.235997,1.234054,1.232502,1.231799,1.231047
M1-1000464,31.3125,,21-05-2024 07:50,9.1,201-P2-P-3.sam,201,P2,201-P2,Pulp,WVC,5.1,0.7103962,0.6899562,0.6681159,0.6476598,0.6352758,0.6330505,0.6348654,0.6516411,0.6715019,0.6801989,0.6837683,0.6843423,0.6816807,0.6761076,0.6708975,0.6636243,0.6527236,0.6392358,0.6269006,0.6143444,0.6012465,0.5896477,0.5798027,0.5729196,0.5682641,0.566046,0.5662394,0.5681489,0.5714875,0.5763424,0.5836458,0.5920468,0.6006069,0.6104789,0.6230596,0.6419522,0.6738022,0.7222823,0.777539,0.8247046,0.8550299,0.8701918,0.8779649,0.8819967,0.8849861,0.8884285,0.8915597,0.8923422,0.89026,0.8888749,0.8857911,0.8825256,0.879404,0.8758119,0.8727593,0.8704436,0.8690991,0.8688149,0.8702688,0.8740483,0.8807205,0.8911006,0.9038031,0.9200374,0.9405198,0.9637446,0.990764,1.019851,1.049023,1.077982,1.103946,1.126142,1.146317,1.165289,1.187984,1.214851,1.249243,1.285781,1.318676,1.342517,1.358184,1.366429,1.372448,1.37412,1.375102,1.375472,1.374787,1.373654,1.371955,1.369574,1.367213,1.364936,1.361088,1.357934,1.354618,1.349675,1.345528,1.340968,1.33601,1.33079,1.326145,1.320521,1.31503,1.310121,1.304308,1.298603,1.293099,1.287394,1.282369,1.277667,1.272527,1.26753,1.263421,1.258756,1.254812,1.251442,1.248433,1.245392,1.24263,1.240571,1.237693,1.235863,1.23457,1.233575,1.23287
M1-1000464,31.25,,21-05-2024 07:50,9.1,201-P2-P-4.sam,201,P2,201-P2,Pulp,WVC,5.1,0.7127168,0.6925833,0.6717688,0.6517996,0.6385,0.6361829,0.6392055,0.6552847,0.6745903,0.6843862,0.6878306,0.6882052,0.6857821,0.6805157,0.6747271,0.6670851,0.6563023,0.6424099,0.6300085,0.6176366,0.6046923,0.5929723,0.5832079,0.5759853,0.5714887,0.5692892,0.5695027,0.5714336,0.5745136,0.5792996,0.5868033,0.5953989,0.603892,0.6135881,0.626192,0.6453028,0.6775542,0.7256955,0.7806223,0.8278962,0.858295,0.8732216,0.8811419,0.8855237,0.8879316,0.8916982,0.8949364,0.8954505,0.8938227,0.8923024,0.8888752,0.885722,0.8820763,0.8790789,0.8759215,0.8737983,0.8718433,0.8716569,0.8730491,0.8769866,0.8837834,0.893739,0.9065208,0.9233007,0.9430455,0.9663811,0.9935101,1.022876,1.051465,1.080125,1.10614,1.127934,1.148469,1.167439,1.189672,1.216915,1.251108,1.287457,1.320065,1.343279,1.359834,1.368863,1.374055,1.376075,1.377022,1.377694,1.376552,1.374746,1.374095,1.371174,1.368158,1.365875,1.362394,1.35972,1.355787,1.350834,1.346646,1.34207,1.337331,1.331824,1.326888,1.321018,1.315986,1.310574,1.304973,1.299042,1.293976,1.288021,1.282796,1.277869,1.272919,1.267909,1.263793,1.259334,1.254978,1.251988,1.24877,1.245566,1.242966,1.240701,1.238001,1.235931,1.234373,1.233491,1.232881
M1-1000464,31.25,,21-05-2024 07:50,9.1,201-P2-P-5.sam,201,P2,201-P2,Pulp,WVC,5.1,0.7155823,0.6946913,0.6738287,0.655077,0.6417011,0.638756,0.6417229,0.657835,0.6790355,0.6868612,0.6914259,0.6911174,0.6888863,0.6839883,0.6780331,0.6705238,0.6596061,0.6460998,0.6337088,0.6210309,0.6083579,0.5969154,0.5867382,0.5797165,0.574985,0.5727249,0.5730187,0.5752345,0.5784071,0.5830678,0.5904982,0.5991554,0.6078205,0.617604,0.6302036,0.6493073,0.681577,0.7301114,0.7854381,0.832718,0.8629808,0.8782063,0.8860816,0.8904706,0.8930756,0.8966413,0.899377,0.9002988,0.898793,0.8971484,0.8940597,0.8904997,0.8873984,0.8839896,0.8811104,0.8790706,0.8772346,0.8767799,0.8784912,0.8826638,0.8892115,0.8997409,0.9124776,0.9289572,0.9490516,0.9727198,0.9998189,1.029106,1.058197,1.086892,1.112985,1.135211,1.155176,1.174077,1.19626,1.223491,1.2572,1.293299,1.324912,1.347965,1.36303,1.370912,1.376072,1.37768,1.37853,1.378459,1.378113,1.376498,1.37511,1.372952,1.370124,1.367497,1.364272,1.361258,1.357886,1.353165,1.348915,1.344842,1.340308,1.334995,1.33051,1.325257,1.319398,1.314636,1.309166,1.303808,1.298415,1.292775,1.287667,1.283266,1.278004,1.273312,1.26913,1.264957,1.260711,1.257479,1.254215,1.251343,1.248718,1.246281,1.243539,1.241961,1.240486,1.239612,1.238897
M1-1000464,32.25,,21-05-2024 08:02,9.1,201-P3-P-1.sam,201,P3,201-P3,Pulp,WVC,4.6,0.7973922,0.7783303,0.7592943,0.7425173,0.7305667,0.7271715,0.7297008,0.7456265,0.7656518,0.7745791,0.7772752,0.7786971,0.7771487,0.7728883,0.7691596,0.7632186,0.7532198,0.7403606,0.7293231,0.7179614,0.7061769,0.6954646,0.6863287,0.6795967,0.6761609,0.6744764,0.6750885,0.6776851,0.6813347,0.6869353,0.6947197,0.7032795,0.7120466,0.7222514,0.7352436,0.7539971,0.7854285,0.8324909,0.8849487,0.9286662,0.9562358,0.9699368,0.9768322,0.9800802,0.9825282,0.9866195,0.9888441,0.9901813,0.9886161,0.9876357,0.9851314,0.9824784,0.9806677,0.9778584,0.976292,0.9748101,0.9739094,0.9736289,0.9756395,0.9801391,0.9870924,0.9969841,1.009134,1.023625,1.042793,1.063919,1.087261,1.112878,1.137927,1.161791,1.184134,1.202943,1.219207,1.235076,1.252751,1.273747,1.300862,1.32779,1.353985,1.372368,1.385117,1.392033,1.396044,1.397741,1.398377,1.398873,1.398304,1.396207,1.395194,1.393361,1.390323,1.387765,1.384499,1.381457,1.378233,1.374231,1.370444,1.366579,1.361512,1.357177,1.353089,1.348333,1.343267,1.338526,1.333601,1.329212,1.324725,1.31999,1.315526,1.311378,1.307274,1.30316,1.299986,1.296399,1.293102,1.29069,1.288191,1.285989,1.284456,1.282213,1.280467,1.279636,1.278489,1.277867,1.277013
M1-1000464,32.25,,21-05-2024 08:02,9.1,201-P3-P-2.sam,201,P3,201-P3,Pulp,WVC,4.6,0.8037399,0.784146,0.7644789,0.7476866,0.7348542,0.7318959,0.7351522,0.7518158,0.7710804,0.7791082,0.7830239,0.7848825,0.7836194,0.7786205,0.7739207,0.7679648,0.7582263,0.7455499,0.7346781,0.7231722,0.7106635,0.7004833,0.6914512,0.6846833,0.6813896,0.6795466,0.6798274,0.6824461,0.6862774,0.6915286,0.6994066,0.7085366,0.7173544,0.7271909,0.7401425,0.7592124,0.7907898,0.8378814,0.8902555,0.9341542,0.9619701,0.9757158,0.982446,0.9854894,0.9888709,0.9924337,0.9945083,0.9954428,0.9940766,0.9932838,0.9905503,0.9874596,0.9861166,0.9833563,0.9816293,0.9801674,0.9790347,0.9795778,0.9811125,0.985796,0.9926459,1.002296,1.014729,1.029454,1.048222,1.069466,1.09272,1.11853,1.143495,1.167255,1.189503,1.208467,1.224816,1.240127,1.25731,1.278455,1.305119,1.331819,1.356316,1.374374,1.3859,1.392043,1.396438,1.397706,1.397968,1.398868,1.397919,1.396595,1.395536,1.393337,1.390284,1.387442,1.384512,1.381457,1.378231,1.373931,1.370442,1.366012,1.361813,1.357719,1.353349,1.348604,1.344041,1.339525,1.334574,1.330167,1.325893,1.321357,1.317094,1.312915,1.309214,1.305294,1.301891,1.298264,1.295151,1.292724,1.290212,1.288199,1.286667,1.284619,1.282543,1.282048,1.281243,1.280812,1.279974
M1-1000464,32.1875,,21-05-2024 08:02,9.1,201-P3-P-3.sam,201,P3,201-P3,Pulp,WVC,4.6,0.8096601,0.7908481,0.7707955,0.7534283,0.7412195,0.7373823,0.7421165,0.7587375,0.7780758,0.786607,0.7910781,0.7918217,0.7907429,0.7864624,0.7825148,0.7762962,0.7663778,0.7533196,0.7426935,0.7309562,0.7189723,0.7080565,0.6991564,0.6930345,0.6892127,0.6871355,0.6876143,0.6902799,0.693998,0.6997527,0.7075568,0.7163983,0.7254004,0.7355901,0.7487197,0.7673863,0.7991024,0.8466192,0.8992586,0.9430245,0.9712818,0.9849517,0.9913849,0.9946465,0.997872,1.001343,1.003535,1.004335,1.003394,1.002332,0.9997078,0.9971737,0.9952547,0.9925742,0.9913087,0.9896284,0.9889051,0.9889018,0.9908186,0.9952802,1.002313,1.012118,1.024565,1.039366,1.058272,1.079234,1.102682,1.128056,1.152831,1.176636,1.19879,1.216762,1.232735,1.247891,1.265214,1.285488,1.310694,1.335851,1.359351,1.375899,1.386688,1.392847,1.396374,1.397705,1.398724,1.399192,1.397853,1.396168,1.39515,1.39332,1.389952,1.387381,1.384195,1.381413,1.378217,1.374531,1.370722,1.366586,1.362342,1.358006,1.354158,1.349641,1.345054,1.341015,1.336493,1.331586,1.327998,1.323624,1.319801,1.315563,1.311806,1.308268,1.305049,1.301593,1.299045,1.296596,1.294243,1.292227,1.290686,1.289044,1.287211,1.286302,1.28564,1.285176,1.284463
M1-1000464,32.1875,,21-05-2024 08:02,9.1,201-P3-P-4.sam,201,P3,201-P3,Pulp,WVC,4.6,0.8192814,0.7998641,0.780209,0.7628682,0.750934,0.7479013,0.7516276,0.7691585,0.7885092,0.7976246,0.8015524,0.8032141,0.8016518,0.7978581,0.7934012,0.7873576,0.777457,0.7646593,0.7535908,0.741809,0.7294227,0.7189158,0.7091822,0.7028022,0.6995566,0.6975493,0.698122,0.700919,0.7046373,0.7100565,0.7180738,0.7271986,0.7361772,0.7462025,0.7590688,0.7781875,0.8101327,0.8576723,0.9106339,0.9542617,0.9821862,0.9954212,1.002092,1.005255,1.008732,1.012321,1.014391,1.015612,1.013988,1.013039,1.010733,1.008142,1.006222,1.003689,1.001808,1.00042,0.9999092,1.000134,1.00178,1.006812,1.013425,1.023459,1.035901,1.05052,1.069363,1.090205,1.112909,1.13837,1.162626,1.185793,1.206801,1.224975,1.240461,1.255048,1.271193,1.290933,1.314566,1.338398,1.360472,1.376303,1.387116,1.393274,1.396796,1.398095,1.398716,1.399197,1.398259,1.396483,1.394778,1.393351,1.389992,1.387734,1.38454,1.382051,1.37883,1.37483,1.37072,1.366586,1.362341,1.358015,1.354432,1.349902,1.345309,1.341265,1.336744,1.332307,1.328704,1.324544,1.320705,1.316669,1.31333,1.309768,1.307172,1.303698,1.300706,1.298664,1.296292,1.294474,1.293134,1.291503,1.289953,1.289404,1.288883,1.288384,1.287567
M1-1000464,32.0625,,21-05-2024 08:02,9.1,201-P3-P-5.sam,201,P3,201-P3,Pulp,WVC,4.6,0.8269712,0.808659,0.7893193,0.7725268,0.7610884,0.75765,0.7619112,0.7786875,0.7990144,0.8076968,0.8120983,0.8133005,0.8123958,0.8081193,0.8046776,0.7979448,0.7878977,0.775243,0.7640336,0.7520375,0.7401214,0.7300602,0.7203159,0.7134215,0.7101368,0.7084184,0.7086768,0.7110746,0.7150557,0.7208518,0.7289767,0.7379083,0.7470131,0.7574201,0.7705061,0.7897503,0.8217377,0.8693194,0.9227359,0.9664093,0.9937948,1.006892,1.013795,1.016741,1.019676,1.0233,1.026061,1.02678,1.025576,1.024644,1.022364,1.020014,1.018129,1.015818,1.014093,1.012877,1.0123,1.012477,1.014675,1.019154,1.026164,1.035535,1.048033,1.062457,1.081262,1.102082,1.124675,1.14943,1.172846,1.195186,1.215838,1.233532,1.247948,1.262006,1.277882,1.29598,1.318397,1.340909,1.36188,1.376564,1.387375,1.392851,1.396725,1.398368,1.398581,1.39946,1.398176,1.396415,1.395038,1.393281,1.389921,1.387247,1.383903,1.381641,1.378489,1.374829,1.370707,1.367448,1.362574,1.358565,1.354676,1.350419,1.346052,1.341976,1.33742,1.333476,1.329868,1.32565,1.322072,1.318437,1.315056,1.31167,1.309058,1.305799,1.303155,1.301316,1.298905,1.297318,1.295936,1.294268,1.292776,1.292301,1.291763,1.291269,1.29047
M1-1000464,31.9375,,21-05-2024 08:08,9.1,201-P4-P-1.sam,201,P4,201-P4,Pulp,WVC,5.166666667,0.8036726,0.784534,0.7660716,0.7488347,0.7366732,0.7337665,0.7358199,0.7518784,0.7714413,0.7797253,0.7831181,0.7851923,0.7832993,0.7786289,0.7742441,0.7678671,0.7582315,0.7453638,0.7348256,0.7228846,0.7107062,0.7005318,0.6910831,0.6845738,0.6806722,0.6793094,0.6796264,0.6819087,0.6856775,0.6909168,0.6984926,0.707281,0.7159943,0.7254081,0.737897,0.7570196,0.7881395,0.8348197,0.8870521,0.9308748,0.9591275,0.9727951,0.9796231,0.9829925,0.98603,0.9895198,0.992031,0.9925101,0.9915791,0.9897626,0.987638,0.9844948,0.9824928,0.9795435,0.9773047,0.9758485,0.9750006,0.9748842,0.9765885,0.9805568,0.9876049,0.9968909,1.00935,1.024053,1.04329,1.064669,1.087927,1.114296,1.139897,1.164617,1.186705,1.206185,1.222628,1.238481,1.256268,1.277648,1.304909,1.331316,1.356862,1.374473,1.386474,1.392885,1.397068,1.399122,1.399688,1.400503,1.398902,1.397833,1.39636,1.394332,1.392051,1.38983,1.386151,1.383727,1.37999,1.376634,1.37273,1.368864,1.363935,1.360203,1.355714,1.351439,1.346521,1.34193,1.337347,1.332713,1.328674,1.323995,1.319818,1.315761,1.311762,1.307752,1.304747,1.301177,1.297898,1.29547,1.292687,1.290754,1.288923,1.286776,1.285092,1.284122,1.283234,1.282386,1.281211
M1-1000464,31.9375,,21-05-2024 08:08,9.1,201-P4-P-2.sam,201,P4,201-P4,Pulp,WVC,5.166666667,0.8074604,0.7883665,0.7693448,0.7523087,0.7391612,0.7361618,0.7389976,0.7558007,0.7753622,0.7835863,0.786082,0.7879752,0.7870345,0.7824304,0.777756,0.7716177,0.761528,0.7483286,0.7372363,0.7256439,0.7132456,0.7033804,0.6941023,0.687102,0.6832506,0.6818589,0.6822543,0.6846349,0.6881039,0.6933169,0.7010391,0.7095891,0.7182565,0.7279688,0.7405274,0.7593568,0.7904777,0.8376395,0.8901169,0.9341835,0.9625943,0.9761755,0.9826716,0.986011,0.989007,0.9923788,0.994638,0.995645,0.9939608,0.9927787,0.9905229,0.9872801,0.9852064,0.9824495,0.9800552,0.9783155,0.9776183,0.9774382,0.9791232,0.9837598,0.9902288,0.9995344,1.012019,1.026984,1.046234,1.067487,1.091319,1.117467,1.142642,1.167271,1.190002,1.209229,1.225479,1.241671,1.258873,1.280359,1.3074,1.333538,1.358424,1.375722,1.387758,1.394169,1.398302,1.399974,1.40089,1.401296,1.400018,1.398198,1.397172,1.396111,1.392688,1.390555,1.387426,1.384347,1.380917,1.377539,1.373611,1.369729,1.365061,1.361307,1.357048,1.352219,1.347557,1.343436,1.338329,1.334156,1.329852,1.325607,1.321177,1.317092,1.313288,1.309263,1.306025,1.30285,1.299552,1.296704,1.29432,1.29238,1.290756,1.288808,1.286949,1.28589,1.285327,1.284614,1.283443
M1-1000464,31.875,,21-05-2024 08:09,9.1,201-P4-P-3.sam,201,P4,201-P4,Pulp,WVC,5.166666667,0.8131006,0.7947265,0.7746706,0.7571315,0.7449248,0.7416904,0.7451679,0.7603809,0.7808243,0.7880216,0.791849,0.7935273,0.7923313,0.7873473,0.7829239,0.7765807,0.7669039,0.7540705,0.7430606,0.731893,0.7197393,0.7096649,0.6996553,0.6931086,0.689581,0.6879636,0.6883405,0.6906559,0.6941188,0.6993071,0.7070928,0.7157078,0.7242337,0.7341622,0.7469127,0.7653155,0.7962998,0.8429329,0.8952141,0.9395263,0.9675708,0.9811938,0.9876395,0.9909142,0.9938817,0.997601,0.9998246,0.9999046,0.9995264,0.9984323,0.9953471,0.9922791,0.9903584,0.9871587,0.9851937,0.9837681,0.9828957,0.9826037,0.9844164,0.9886627,0.9951743,1.005111,1.01709,1.032085,1.050948,1.07228,1.09569,1.121785,1.146827,1.171294,1.193526,1.212306,1.228931,1.244583,1.262478,1.282933,1.308753,1.335006,1.359553,1.37638,1.38684,1.393775,1.398181,1.399076,1.40002,1.400455,1.399631,1.397818,1.397096,1.394957,1.392001,1.389838,1.386773,1.383672,1.380591,1.376933,1.373308,1.369444,1.365035,1.361036,1.357049,1.352477,1.3478,1.343669,1.338791,1.33462,1.330316,1.326045,1.321861,1.317752,1.314148,1.310097,1.307284,1.303691,1.300565,1.298128,1.295709,1.293391,1.292155,1.289977,1.288365,1.287523,1.286482,1.285563,1.284911
M1-1000464,31.8125,,21-05-2024 08:09,9.1,201-P4-P-4.sam,201,P4,201-P4,Pulp,WVC,5.166666667,0.8152891,0.7974831,0.778672,0.7603742,0.7475168,0.7448307,0.7481899,0.7642259,0.7839387,0.7933508,0.7955086,0.796995,0.7956308,0.7909423,0.7869487,0.7805109,0.7705446,0.757511,0.7463412,0.7346385,0.7224903,0.7123698,0.702754,0.696624,0.6927481,0.6908727,0.6913307,0.6937135,0.6970479,0.7025169,0.7103716,0.7187421,0.7275516,0.7375117,0.7499744,0.7687136,0.7997158,0.8464831,0.8992977,0.9435397,0.9712046,0.9844526,0.9915072,0.9947204,0.9975913,1.000894,1.003193,1.003787,1.002563,1.001067,0.9979984,0.9957442,0.9937392,0.9907324,0.9888872,0.9872753,0.9862103,0.9862462,0.987984,0.9924378,0.9990879,1.008254,1.020512,1.035292,1.054462,1.075606,1.099103,1.125333,1.15016,1.174176,1.196252,1.215337,1.231149,1.247139,1.264449,1.285332,1.311214,1.33681,1.360694,1.377605,1.388457,1.394583,1.398616,1.400279,1.401168,1.401566,1.40034,1.398479,1.397377,1.39531,1.39272,1.390791,1.387407,1.384243,1.380881,1.377535,1.37359,1.370021,1.365574,1.361588,1.357575,1.352999,1.348559,1.344404,1.339496,1.335327,1.331255,1.326946,1.322999,1.318863,1.315013,1.311158,1.308121,1.304738,1.301786,1.299344,1.29691,1.294787,1.292936,1.291353,1.289342,1.288516,1.287483,1.28699,1.286102
M1-1000464,31.75,,21-05-2024 08:09,9.1,201-P4-P-5.sam,201,P4,201-P4,Pulp,WVC,5.166666667,0.8149875,0.7966052,0.7776597,0.7605617,0.7480429,0.7447276,0.7480154,0.7632691,0.783048,0.7915488,0.7953343,0.7969193,0.794969,0.7907671,0.7864044,0.7802898,0.770494,0.757401,0.7466423,0.7347847,0.7224823,0.7120084,0.7029601,0.6964489,0.6925856,0.6908649,0.6911441,0.6937499,0.6972178,0.7023116,0.7100331,0.7186456,0.7272873,0.7370067,0.7497194,0.7684462,0.7994311,0.8461736,0.8988271,0.9427193,0.9704823,0.9840419,0.9909815,0.9938809,0.9968387,1.000524,1.002717,1.003051,1.002208,1.000352,0.9976502,0.9950972,0.9934484,0.9901366,0.9882619,0.9865398,0.9858311,0.9854825,0.9877511,0.9916366,0.9983558,1.007534,1.02028,1.035011,1.053938,1.075089,1.09847,1.124295,1.149864,1.173557,1.195609,1.214707,1.230787,1.246148,1.264126,1.284927,1.310429,1.336001,1.359885,1.377584,1.38878,1.394158,1.398534,1.39978,1.400305,1.401111,1.399944,1.39844,1.397352,1.395646,1.392649,1.390375,1.3871,1.384199,1.38086,1.377231,1.373578,1.369722,1.364994,1.361315,1.357033,1.352996,1.348281,1.343877,1.338972,1.33483,1.33101,1.326461,1.32232,1.318408,1.314561,1.310703,1.307666,1.304522,1.301549,1.298897,1.296064,1.294378,1.292693,1.290674,1.288873,1.288193,1.287041,1.286401,1.285331
M1-1000464,30.8125,,21-05-2024 08:13,9.1,201-P5-P-1.sam,201,P5,201-P5,Pulp,WVC,4.8,0.7918437,0.7728887,0.7534541,0.7352697,0.7243258,0.7223336,0.7258117,0.7427891,0.7610561,0.7698659,0.7743001,0.7760149,0.7743598,0.7705873,0.7643668,0.7586602,0.7484738,0.7347822,0.7235776,0.7120353,0.7001901,0.6894084,0.6797474,0.6731471,0.6691326,0.6674546,0.6678318,0.6700885,0.6737514,0.6790056,0.6863183,0.6953363,0.7040644,0.7135049,0.7263101,0.7451383,0.7765505,0.8230661,0.8762316,0.9197982,0.9476029,0.961722,0.9682263,0.9717135,0.974811,0.9780607,0.9802238,0.9811088,0.9800779,0.9779723,0.9755026,0.9735007,0.9706443,0.9684857,0.965641,0.9641845,0.9631069,0.9628673,0.9648038,0.9689544,0.9763078,0.9855815,0.9972317,1.013006,1.031556,1.052876,1.077308,1.102708,1.128577,1.153217,1.175228,1.194725,1.211482,1.227522,1.245794,1.268222,1.295487,1.323632,1.348937,1.367862,1.379867,1.387328,1.39125,1.393044,1.39361,1.393494,1.392743,1.392172,1.390381,1.388024,1.38524,1.383294,1.380379,1.376342,1.372724,1.369375,1.364831,1.361338,1.356822,1.352283,1.347412,1.342526,1.337742,1.333065,1.328154,1.323364,1.318983,1.314282,1.309892,1.305529,1.301272,1.297127,1.293975,1.290459,1.286899,1.284484,1.282273,1.27947,1.27774,1.275616,1.273687,1.272603,1.27148,1.270834,1.270083
M1-1000464,30.8125,,21-05-2024 08:13,9.1,201-P5-P-2.sam,201,P5,201-P5,Pulp,WVC,4.8,0.8002706,0.7817633,0.76256,0.7444712,0.7333384,0.7309638,0.7342719,0.751302,0.7703463,0.7797385,0.7837884,0.7849809,0.7834675,0.7792639,0.7734234,0.7678559,0.7571811,0.7437029,0.7321627,0.7210205,0.7090892,0.6980503,0.6883172,0.6816323,0.6778564,0.6759266,0.6763678,0.6786464,0.6818063,0.6872274,0.6950346,0.7037938,0.7127091,0.7223417,0.7347357,0.7536501,0.7853609,0.8326431,0.8857456,0.929491,0.9571927,0.9709832,0.9781327,0.9817209,0.9842991,0.9874932,0.9901064,0.9907947,0.9894893,0.9877884,0.9849642,0.9826872,0.9801099,0.9777008,0.9755707,0.9737914,0.9726927,0.9724501,0.9747057,0.9790775,0.9858041,0.9951223,1.007454,1.022792,1.041339,1.063275,1.087017,1.112752,1.138167,1.16262,1.1846,1.203467,1.220152,1.236011,1.253513,1.275508,1.301409,1.328748,1.352389,1.370281,1.381501,1.388136,1.391662,1.393451,1.394039,1.394282,1.393477,1.39251,1.390738,1.388366,1.385622,1.383935,1.380363,1.376671,1.373335,1.369972,1.365706,1.362477,1.357937,1.353649,1.34901,1.344341,1.339777,1.335793,1.330574,1.32621,1.322233,1.317456,1.313233,1.309024,1.304913,1.301363,1.297752,1.294573,1.291582,1.288932,1.286893,1.284256,1.282534,1.280826,1.278817,1.278027,1.277196,1.276776,1.276474
M1-1000464,30.75,,21-05-2024 08:14,9.1,201-P5-P-3.sam,201,P5,201-P5,Pulp,WVC,4.8,0.8009863,0.7830553,0.7640599,0.7452165,0.7338422,0.7308819,0.7357616,0.7519448,0.7718275,0.7803219,0.7851943,0.7856178,0.7840341,0.7803153,0.7746264,0.7680749,0.7577326,0.7453593,0.7340261,0.7224383,0.7102712,0.6991529,0.6896611,0.6830269,0.679203,0.6769578,0.6776285,0.679962,0.6832831,0.6886129,0.6962631,0.7050338,0.7137488,0.7235016,0.736095,0.7550285,0.786701,0.8339484,0.8873484,0.9309119,0.9587013,0.9723807,0.9792991,0.9832022,0.98575,0.9889387,0.9914299,0.9918185,0.9904712,0.9884316,0.986268,0.9842098,0.9812998,0.9788539,0.9767033,0.9750959,0.9737897,0.973721,0.9759494,0.9802881,0.9870594,0.9968023,1.008856,1.023999,1.042762,1.064057,1.088597,1.114337,1.139534,1.164053,1.186065,1.204971,1.221716,1.237592,1.255133,1.277175,1.30314,1.330217,1.353911,1.371461,1.382695,1.388971,1.392415,1.39383,1.394745,1.394201,1.393848,1.392831,1.391049,1.388727,1.38621,1.383882,1.381015,1.376939,1.373927,1.370266,1.366272,1.362754,1.358474,1.354208,1.350071,1.345361,1.340519,1.336518,1.331278,1.327381,1.322922,1.318344,1.314127,1.310332,1.306199,1.302189,1.299201,1.295609,1.292581,1.290333,1.288068,1.28545,1.283903,1.281978,1.280182,1.2792,1.2781,1.277458,1.277408
M1-1000464,30.75,,21-05-2024 08:14,9.1,201-P5-P-4.sam,201,P5,201-P5,Pulp,WVC,4.8,0.8007087,0.7821083,0.7621036,0.7450966,0.7355389,0.7324591,0.7364954,0.7527176,0.7718276,0.781103,0.7851382,0.7862989,0.7852586,0.780481,0.7755144,0.769628,0.7593876,0.7460958,0.734739,0.7236176,0.7115174,0.7003152,0.6907644,0.6840808,0.6801195,0.6783671,0.6788014,0.6813467,0.6849131,0.6900296,0.6973239,0.7059305,0.7151182,0.7250325,0.7375137,0.7566121,0.7881085,0.8354141,0.8886939,0.9323852,0.9602367,0.9739361,0.980753,0.9843231,0.9868659,0.9900339,0.9925035,0.9928897,0.9922312,0.990068,0.9875377,0.9854754,0.9831079,0.9802611,0.9778435,0.9765009,0.9753584,0.9752548,0.9774448,0.9817775,0.9887516,0.9982516,1.01056,1.025705,1.044496,1.065831,1.090393,1.115983,1.141482,1.16584,1.188466,1.207096,1.223575,1.239187,1.256785,1.27884,1.304215,1.331726,1.355106,1.37269,1.383516,1.389388,1.392864,1.394629,1.395151,1.394984,1.394202,1.393199,1.391406,1.389071,1.386585,1.384566,1.381656,1.377576,1.374844,1.370862,1.36685,1.363038,1.359043,1.355013,1.350339,1.346144,1.341028,1.33727,1.332248,1.328095,1.323857,1.319027,1.315248,1.311214,1.307279,1.303261,1.300045,1.296856,1.293402,1.291356,1.289084,1.286647,1.284705,1.282994,1.281219,1.280284,1.279054,1.278656,1.278192
M1-1000464,30.6875,,21-05-2024 08:14,9.1,201-P5-P-5.sam,201,P5,201-P5,Pulp,WVC,4.8,0.8090879,0.7897542,0.7699413,0.7533514,0.7416232,0.7395697,0.7434261,0.760502,0.7804615,0.7895067,0.7923706,0.7953278,0.79278,0.7889457,0.7838445,0.777413,0.7670326,0.7539328,0.7414261,0.7305673,0.7185084,0.7074504,0.6981295,0.6908777,0.6866835,0.6850075,0.6854822,0.6881238,0.6918046,0.6968697,0.7040016,0.7128662,0.7220891,0.7318706,0.7445831,0.763795,0.7955593,0.8430485,0.8965764,0.9408064,0.9688302,0.9828752,0.9896879,0.9935412,0.9962689,0.9992398,1.001575,1.002098,1.001158,0.9987779,0.9966224,0.9942342,0.9916458,0.9890977,0.9866198,0.9852846,0.9841464,0.984045,0.9860373,0.9904789,0.9975987,1.007034,1.019609,1.034798,1.053509,1.075032,1.099577,1.125269,1.15083,1.175136,1.196885,1.215453,1.231832,1.247294,1.264998,1.285593,1.31053,1.335746,1.35817,1.374675,1.385134,1.390675,1.394464,1.395805,1.396284,1.395301,1.394951,1.393906,1.392461,1.390058,1.387271,1.385511,1.382298,1.378449,1.375129,1.371757,1.36771,1.363896,1.360413,1.35583,1.351668,1.347443,1.342793,1.338745,1.333929,1.329992,1.325958,1.321523,1.317727,1.313639,1.309654,1.305799,1.303198,1.299982,1.296882,1.294609,1.292308,1.290084,1.288517,1.286588,1.284887,1.283903,1.282743,1.282088,1.281934
M1-1000464,32.3125,,21-05-2024 08:25,9.1,202-P1-P-1.sam,202,P1,202-P1,Pulp,WVC,4.5,0.733094,0.7129305,0.6924578,0.6735894,0.6605821,0.6574114,0.6598164,0.6756251,0.6966485,0.7054218,0.7083867,0.709353,0.7061476,0.7008424,0.6947352,0.6874698,0.675577,0.6610974,0.6479234,0.6349391,0.6212101,0.6093545,0.5987881,0.5906458,0.5858926,0.5840036,0.5840641,0.5856042,0.5883964,0.5932276,0.6004959,0.6089954,0.6178086,0.627461,0.6400732,0.6594981,0.69243,0.7426762,0.800594,0.8495559,0.8810075,0.8967749,0.9045106,0.9090754,0.9122742,0.9159258,0.9185761,0.9193645,0.9171081,0.9150012,0.9115391,0.90832,0.904539,0.9015032,0.8979087,0.8949272,0.893037,0.8920332,0.8932223,0.897497,0.9046142,0.9145405,0.9278041,0.9453481,0.9666275,0.9918543,1.020537,1.051472,1.082755,1.113224,1.140788,1.164579,1.185456,1.205203,1.228252,1.256844,1.29008,1.324483,1.352237,1.372408,1.384588,1.389894,1.393752,1.395137,1.395883,1.395727,1.394978,1.393974,1.392223,1.390324,1.387322,1.385836,1.382404,1.379458,1.375621,1.37273,1.368611,1.365109,1.361565,1.357141,1.352769,1.34871,1.343906,1.339259,1.334252,1.329718,1.325229,1.320286,1.315187,1.310951,1.306102,1.301682,1.298067,1.294038,1.289983,1.286824,1.283816,1.280963,1.278476,1.276365,1.273751,1.271942,1.270775,1.269922,1.269459
M1-1000464,32.25,,21-05-2024 08:26,9.1,202-P1-P-2.sam,202,P1,202-P1,Pulp,WVC,4.5,0.7710872,0.7520109,0.7321224,0.7142167,0.70235,0.6995181,0.7032287,0.7212295,0.742624,0.7532037,0.755945,0.7575924,0.7550566,0.7492206,0.7428105,0.7353698,0.7233703,0.7085925,0.6946416,0.6811627,0.6674955,0.6547439,0.6432847,0.635258,0.6302422,0.6274679,0.6272726,0.6289484,0.6321902,0.6375283,0.64518,0.6542093,0.6632853,0.6731954,0.6867107,0.7071533,0.7417282,0.7943468,0.8540792,0.903904,0.9357396,0.9518984,0.9602601,0.9645998,0.9676237,0.971066,0.9742752,0.9748826,0.9730849,0.9711699,0.9672652,0.9649714,0.9613518,0.9578798,0.9544509,0.9518493,0.9498668,0.9493654,0.9510121,0.9551924,0.9628039,0.9733084,0.9867206,1.004186,1.025839,1.05042,1.078402,1.107877,1.137487,1.165381,1.190668,1.211823,1.230318,1.247704,1.266421,1.289165,1.315404,1.341297,1.362586,1.377959,1.387478,1.392434,1.395731,1.396284,1.396626,1.396444,1.395708,1.394668,1.392871,1.390662,1.387906,1.385777,1.383055,1.379739,1.376837,1.373631,1.369191,1.366263,1.362677,1.358812,1.354649,1.350815,1.346482,1.342779,1.338173,1.334535,1.330664,1.326495,1.322672,1.319631,1.315485,1.311778,1.30934,1.306202,1.303234,1.301234,1.298691,1.296588,1.294872,1.293396,1.291167,1.290426,1.289444,1.28929,1.288944
M1-1000464,32.1875,,21-05-2024 08:26,9.1,202-P1-P-3.sam,202,P1,202-P1,Pulp,WVC,4.5,0.8045191,0.7857196,0.7667103,0.7508,0.7407167,0.7380069,0.7434255,0.7632419,0.7858325,0.7963618,0.7993588,0.8008884,0.7990077,0.7948028,0.787877,0.7809783,0.7683761,0.7531219,0.7399715,0.7262267,0.7119809,0.6988713,0.6873528,0.6789871,0.6734573,0.670765,0.6708043,0.6725275,0.675836,0.6812979,0.6894912,0.6990311,0.7086572,0.7192758,0.7330393,0.7543421,0.790202,0.8429798,0.9024445,0.9518613,0.9821718,0.9978588,1.005265,1.008968,1.01259,1.016496,1.018568,1.019008,1.01799,1.015847,1.013343,1.010779,1.007839,1.005065,1.001838,0.9998786,0.9983889,0.9980063,1.000122,1.004768,1.012017,1.02203,1.034639,1.051968,1.072493,1.094863,1.120802,1.147073,1.173521,1.197792,1.219675,1.237794,1.252715,1.267237,1.283238,1.301836,1.323886,1.345678,1.364801,1.378247,1.387414,1.392433,1.395676,1.396247,1.396962,1.396379,1.396078,1.394599,1.392827,1.390639,1.387931,1.38606,1.383021,1.379366,1.376512,1.37333,1.369181,1.366266,1.36292,1.357987,1.354381,1.35054,1.345956,1.342512,1.338149,1.335008,1.331371,1.326936,1.323593,1.320298,1.317011,1.313717,1.31148,1.308759,1.305952,1.304161,1.302216,1.300526,1.298994,1.297729,1.295982,1.295041,1.294433,1.294312,1.294451
M1-1000464,32.0625,,21-05-2024 08:26,9.1,202-P1-P-4.sam,202,P1,202-P1,Pulp,WVC,4.5,0.8220414,0.8039801,0.7855964,0.7684978,0.7591276,0.7575886,0.7625642,0.7818367,0.8064511,0.8172274,0.8209339,0.8229754,0.8206381,0.8163428,0.8103926,0.8029973,0.7909472,0.77623,0.7626591,0.7482762,0.7340968,0.7213988,0.709593,0.7010054,0.6956539,0.69278,0.6926222,0.6943268,0.6979115,0.7039517,0.7119367,0.7213323,0.7312826,0.7421253,0.7564149,0.7778763,0.813651,0.8667673,0.9258883,0.9740682,1.004643,1.019424,1.026561,1.030817,1.034349,1.037283,1.040107,1.040818,1.039556,1.037544,1.035451,1.033133,1.030188,1.027626,1.024778,1.023257,1.021837,1.021344,1.023207,1.027987,1.035577,1.045921,1.058219,1.074435,1.094138,1.116339,1.140628,1.166513,1.191477,1.214165,1.234551,1.251101,1.265652,1.278889,1.293363,1.311083,1.331193,1.35098,1.368706,1.381016,1.38942,1.394116,1.396834,1.397391,1.39845,1.397375,1.396362,1.395266,1.393456,1.391302,1.388536,1.386293,1.383702,1.380214,1.377398,1.37393,1.370037,1.366832,1.363453,1.359392,1.35598,1.352112,1.347996,1.3445,1.340554,1.336673,1.333508,1.32969,1.326591,1.323453,1.320099,1.317194,1.314717,1.311977,1.309513,1.308143,1.306348,1.304498,1.303761,1.302227,1.300392,1.299834,1.299256,1.298773,1.298633
M1-1000464,32,,21-05-2024 08:26,9.1,202-P1-P-5.sam,202,P1,202-P1,Pulp,WVC,4.5,0.8399178,0.822211,0.8048673,0.7888686,0.7782992,0.7773428,0.7837539,0.80314,0.8255121,0.8376397,0.8404623,0.8431169,0.8417385,0.8364895,0.8313865,0.8246533,0.8133547,0.7980834,0.7849222,0.7720003,0.7577823,0.7450827,0.7336057,0.7250082,0.7197598,0.7169243,0.7169414,0.7187946,0.7224369,0.7284878,0.7367207,0.746599,0.7565063,0.7672002,0.7814459,0.8026932,0.8382104,0.8901686,0.9472289,0.9934084,1.022149,1.036351,1.043029,1.047112,1.050483,1.053449,1.055614,1.056421,1.055529,1.053785,1.051614,1.050195,1.047404,1.045303,1.043027,1.041571,1.040607,1.040616,1.042629,1.047262,1.05434,1.06405,1.076092,1.091605,1.110387,1.130903,1.153935,1.177246,1.20048,1.22184,1.240829,1.256801,1.270076,1.282351,1.296457,1.312409,1.332265,1.351674,1.368634,1.380922,1.388898,1.393218,1.395543,1.39651,1.397173,1.396166,1.395579,1.394087,1.392334,1.390232,1.387539,1.385603,1.383038,1.379212,1.376456,1.373026,1.369439,1.365971,1.36288,1.35911,1.355155,1.351583,1.347466,1.343973,1.340028,1.336415,1.3335,1.329433,1.326364,1.323218,1.320083,1.317171,1.31469,1.312186,1.309909,1.308119,1.306746,1.304889,1.303718,1.30239,1.30076,1.300193,1.299803,1.299458,1.298992
M1-1000464,32.5,,21-05-2024 08:33,9.1,202-P2-P-1.sam,202,P2,202-P2,Pulp,WVC,4.166666667,0.8791605,0.8617696,0.8441648,0.8283606,0.8185158,0.8170983,0.823686,0.8432871,0.8645615,0.8752546,0.8805676,0.8806338,0.880282,0.8768063,0.8710462,0.8641198,0.8534018,0.8403066,0.8271594,0.8143981,0.8011982,0.7885004,0.7776104,0.7692252,0.7644148,0.7614181,0.7616457,0.7638908,0.7676807,0.7736375,0.7812301,0.7907236,0.8007847,0.8113069,0.8248282,0.8453896,0.8799062,0.930001,0.9846083,1.028541,1.056142,1.070075,1.075875,1.080032,1.08327,1.085878,1.088215,1.088993,1.088313,1.08706,1.084774,1.083276,1.080971,1.07919,1.077131,1.076702,1.074589,1.075304,1.077015,1.082037,1.089016,1.098228,1.10992,1.124516,1.14248,1.161986,1.18427,1.206398,1.227466,1.247778,1.265099,1.279825,1.292457,1.303246,1.315816,1.330668,1.347259,1.3643,1.378544,1.389639,1.397236,1.401016,1.403227,1.404033,1.404607,1.403366,1.402748,1.401561,1.399214,1.397089,1.394175,1.392394,1.389579,1.385983,1.383116,1.379707,1.376032,1.372918,1.369579,1.365739,1.362044,1.358562,1.354868,1.351299,1.347568,1.344429,1.341544,1.337673,1.334491,1.331759,1.32854,1.326288,1.323952,1.322032,1.319444,1.318222,1.317073,1.315005,1.314217,1.313156,1.311795,1.31143,1.311086,1.311133,1.310734
M1-1000464,32.4375,,21-05-2024 08:34,9.1,202-P2-P-2.sam,202,P2,202-P2,Pulp,WVC,4.166666667,0.8959635,0.8787311,0.861535,0.8470391,0.8379441,0.8357674,0.8430536,0.8608427,0.8833674,0.8936148,0.899016,0.900968,0.9004972,0.8973772,0.8902292,0.8861263,0.8756367,0.8601457,0.8481494,0.8364116,0.8237987,0.811505,0.8003303,0.7923324,0.7878031,0.7846294,0.7847569,0.7867531,0.7901923,0.7964236,0.8045806,0.8142884,0.824209,0.8345909,0.8479761,0.8682129,0.9023371,0.9513687,1.004709,1.046281,1.072502,1.085071,1.091863,1.095281,1.097948,1.100802,1.103196,1.103722,1.103061,1.101431,1.099981,1.09879,1.096789,1.094918,1.093187,1.092136,1.091494,1.091745,1.094121,1.098462,1.105886,1.114311,1.125997,1.139654,1.156255,1.174956,1.1954,1.215649,1.235919,1.254645,1.270351,1.284021,1.294961,1.305407,1.317197,1.33093,1.347167,1.36383,1.378091,1.389547,1.396726,1.400602,1.403177,1.403928,1.403715,1.403315,1.402293,1.400775,1.399205,1.397039,1.393851,1.392369,1.389596,1.386256,1.383409,1.379705,1.375725,1.372918,1.369271,1.365742,1.361755,1.358277,1.354066,1.350765,1.347029,1.343911,1.34056,1.336931,1.333791,1.330828,1.327622,1.324683,1.323025,1.320707,1.318538,1.316669,1.315529,1.313703,1.312897,1.312016,1.310393,1.309902,1.309181,1.309244,1.308821
M1-1000464,32.4375,,21-05-2024 08:34,9.1,202-P2-P-3.sam,202,P2,202-P2,Pulp,WVC,4.166666667,0.9094971,0.8926706,0.8762669,0.8621115,0.8523952,0.8512055,0.8593903,0.8762109,0.8999662,0.9099984,0.9126493,0.9175771,0.915791,0.9122275,0.9070458,0.9025342,0.8916823,0.878676,0.8670999,0.8546785,0.841421,0.8298064,0.8189074,0.8112642,0.8068309,0.8035874,0.8037313,0.8063858,0.8102084,0.8160429,0.8243721,0.8339412,0.84381,0.8543579,0.8676841,0.8881948,0.9213935,0.9687306,1.019989,1.060873,1.08605,1.098076,1.103703,1.106221,1.109211,1.111864,1.114558,1.115251,1.114247,1.112817,1.111862,1.110712,1.108771,1.107269,1.105592,1.105235,1.104836,1.105477,1.108204,1.112468,1.118817,1.12778,1.138453,1.15184,1.167516,1.185048,1.204702,1.224107,1.243076,1.259946,1.275387,1.288041,1.298703,1.309142,1.320195,1.333586,1.349085,1.365042,1.379339,1.390414,1.397582,1.401006,1.403202,1.404373,1.404541,1.403304,1.402706,1.401131,1.39916,1.396687,1.393859,1.392373,1.389563,1.385604,1.382788,1.379708,1.376021,1.372922,1.369843,1.365746,1.362306,1.358539,1.354338,1.351543,1.347531,1.344407,1.341047,1.337407,1.334493,1.331982,1.328762,1.325809,1.324147,1.321591,1.319414,1.31819,1.316603,1.314995,1.314189,1.313321,1.311933,1.311315,1.310854,1.310568,1.310637
M1-1000464,32.4375,,21-05-2024 08:34,9.1,202-P2-P-4.sam,202,P2,202-P2,Pulp,WVC,4.166666667,0.9177103,0.9011061,0.8833886,0.8686231,0.8600965,0.8585774,0.8656338,0.8835568,0.9042169,0.9141523,0.917655,0.9205159,0.9192271,0.9170826,0.9119409,0.9070405,0.8980238,0.8854278,0.8741738,0.8629528,0.8510594,0.8392903,0.8288886,0.8219672,0.8174968,0.8148713,0.8150505,0.817245,0.8212319,0.8274741,0.8355222,0.8450024,0.8545436,0.8647963,0.8779143,0.8971287,0.9292017,0.9743943,1.023853,1.062109,1.085349,1.096876,1.102404,1.105531,1.10719,1.110308,1.112277,1.113852,1.112893,1.111467,1.110136,1.109064,1.107639,1.106948,1.105142,1.104603,1.104872,1.105477,1.108204,1.11247,1.118796,1.127389,1.137399,1.150128,1.165125,1.181875,1.200209,1.219544,1.238129,1.255236,1.270239,1.282876,1.293841,1.30428,1.316031,1.329384,1.346036,1.363442,1.377692,1.389555,1.396725,1.400628,1.403566,1.403965,1.404541,1.403304,1.402705,1.401153,1.399527,1.396666,1.39386,1.392346,1.389253,1.385926,1.382781,1.379097,1.376026,1.372913,1.369264,1.365474,1.362026,1.35801,1.354325,1.350502,1.346773,1.343414,1.340073,1.336454,1.33332,1.330593,1.32762,1.324691,1.322588,1.320269,1.317886,1.316453,1.315093,1.313266,1.312248,1.311367,1.309728,1.309211,1.308698,1.30898,1.308537
M1-1000464,32.375,,21-05-2024 08:34,9.1,202-P2-P-5.sam,202,P2,202-P2,Pulp,WVC,4.166666667,0.9176798,0.9012517,0.8845669,0.8692783,0.859904,0.8584212,0.8643029,0.8833641,0.9040861,0.9138754,0.9174533,0.920391,0.9198433,0.9178308,0.9119164,0.9074925,0.8986684,0.8860576,0.8742606,0.8632818,0.8515575,0.8401824,0.8295327,0.822289,0.8185608,0.8158697,0.8160815,0.8184896,0.8221761,0.8281807,0.8362505,0.8456949,0.8556609,0.8659686,0.8787166,0.8980628,0.9296389,0.9751633,1.024111,1.062026,1.085283,1.096818,1.102197,1.105101,1.107718,1.11069,1.112127,1.113343,1.112915,1.111839,1.110207,1.110329,1.107984,1.106921,1.105558,1.105209,1.104819,1.105439,1.107817,1.112197,1.11946,1.127336,1.137687,1.150099,1.165421,1.181869,1.200514,1.219838,1.238041,1.254834,1.269859,1.282848,1.293801,1.303876,1.316043,1.329745,1.346331,1.362989,1.377648,1.389481,1.396693,1.401019,1.403118,1.403872,1.40365,1.403263,1.402677,1.401081,1.399137,1.397081,1.394458,1.392267,1.389561,1.385564,1.383083,1.379706,1.37601,1.372912,1.369241,1.365468,1.361748,1.358269,1.354051,1.350744,1.346988,1.343394,1.340065,1.336428,1.333559,1.330357,1.327604,1.324667,1.322567,1.320049,1.317638,1.316211,1.314843,1.313047,1.312219,1.311306,1.309681,1.309338,1.308505,1.308664,1.308094
M1-1000464,32.1875,,21-05-2024 08:46,9.1,202-P3-P-1.sam,202,P3,202-P3,Pulp,WVC,4.933333333,0.8216883,0.8029487,0.78447,0.7670136,0.7548036,0.7527719,0.757921,0.7728946,0.7932095,0.8028175,0.805463,0.8081471,0.80711,0.8037418,0.7984366,0.7926455,0.7820387,0.7686232,0.7567254,0.7451288,0.7325937,0.7209533,0.7108936,0.7035773,0.6990708,0.6974391,0.6977965,0.6996717,0.7030509,0.7086667,0.7161636,0.7248939,0.7341501,0.7441424,0.7569219,0.7761379,0.8078436,0.855584,0.9091997,0.9531373,0.9808713,0.9952421,1.002586,1.006951,1.010097,1.013397,1.016023,1.017138,1.016211,1.014842,1.012707,1.010818,1.008189,1.005735,1.003156,1.002017,1.000902,1.000462,1.002763,1.006803,1.014041,1.02347,1.034987,1.050412,1.068587,1.089702,1.113041,1.138208,1.16322,1.186883,1.208167,1.226353,1.241371,1.256073,1.273019,1.294219,1.318549,1.343618,1.365891,1.382198,1.392224,1.397592,1.400382,1.401258,1.40224,1.401481,1.401058,1.399832,1.397884,1.395548,1.392758,1.391102,1.387904,1.384113,1.381148,1.377263,1.373601,1.37058,1.3666,1.362686,1.358684,1.354227,1.349827,1.346056,1.341359,1.337434,1.333522,1.329275,1.325206,1.321659,1.317686,1.314169,1.311282,1.308123,1.305103,1.30289,1.300739,1.298433,1.2967,1.295211,1.293231,1.292563,1.291574,1.291243,1.291035
M1-1000464,32.125,,21-05-2024 08:46,9.1,202-P3-P-2.sam,202,P3,202-P3,Pulp,WVC,4.933333333,0.8825266,0.8645899,0.8472967,0.8319098,0.8223246,0.8202379,0.8272465,0.8450629,0.8677769,0.8766795,0.8811809,0.8834271,0.8828958,0.8797395,0.8746766,0.8699113,0.8598856,0.8468205,0.8352406,0.8235745,0.811081,0.7996505,0.7897712,0.7821191,0.7771037,0.7746676,0.7751867,0.777834,0.7813177,0.7872581,0.7954343,0.8047805,0.8143983,0.8247873,0.8381485,0.8577303,0.8902319,0.9373003,0.9889689,1.030311,1.055797,1.068926,1.075396,1.079074,1.08199,1.084817,1.087347,1.088265,1.087722,1.086814,1.085455,1.083809,1.082133,1.08069,1.07894,1.078097,1.07778,1.077754,1.080514,1.084973,1.091771,1.100388,1.1112,1.125118,1.141604,1.16004,1.179824,1.20124,1.221636,1.24058,1.257648,1.27149,1.28321,1.294555,1.307036,1.32246,1.340378,1.358843,1.374143,1.3871,1.395086,1.398888,1.402,1.402429,1.402995,1.40217,1.401007,1.4002,1.398565,1.395897,1.393362,1.390987,1.387959,1.385035,1.382066,1.37848,1.374778,1.372035,1.368011,1.364648,1.360597,1.356901,1.352947,1.349367,1.345342,1.342087,1.338817,1.335142,1.331701,1.328714,1.32596,1.32278,1.320467,1.318282,1.315563,1.314167,1.312769,1.310845,1.309733,1.308913,1.307022,1.306842,1.306026,1.306125,1.306329
M1-1000464,32,,21-05-2024 08:46,9.1,202-P3-P-3.sam,202,P3,202-P3,Pulp,WVC,4.933333333,0.8932858,0.8767884,0.8603264,0.8434107,0.8325071,0.8308004,0.8354613,0.8524818,0.8734668,0.8819976,0.8864022,0.8884933,0.8883604,0.8863748,0.8811826,0.8771034,0.8684231,0.8562479,0.8456912,0.8350971,0.8239541,0.8131898,0.8030691,0.7960055,0.7929102,0.790235,0.7904923,0.7931887,0.7970446,0.8033637,0.8114516,0.8201193,0.8298097,0.8399487,0.8519127,0.8707963,0.9012011,0.945017,0.9927124,1.03039,1.053827,1.065762,1.071927,1.075503,1.077656,1.080727,1.083583,1.084238,1.08385,1.082969,1.081463,1.08105,1.079131,1.078137,1.076469,1.07596,1.075488,1.076545,1.078861,1.08299,1.089281,1.097839,1.107988,1.120669,1.136485,1.153612,1.172551,1.192893,1.212364,1.230204,1.247105,1.261161,1.273162,1.28473,1.297479,1.313452,1.332265,1.352518,1.369994,1.384009,1.392843,1.397619,1.401074,1.401929,1.402862,1.401629,1.400631,1.400529,1.397714,1.395491,1.392663,1.390577,1.38761,1.384275,1.381093,1.377562,1.373564,1.370575,1.366524,1.362412,1.358391,1.354477,1.350054,1.346766,1.342261,1.338605,1.334938,1.331312,1.327521,1.324584,1.320982,1.318056,1.315572,1.312841,1.310123,1.308547,1.307169,1.305303,1.303924,1.302602,1.300977,1.300422,1.300043,1.299743,1.299641
M1-1000464,31.9375,,21-05-2024 08:46,9.1,202-P3-P-4.sam,202,P3,202-P3,Pulp,WVC,4.933333333,0.8948043,0.8779395,0.8601725,0.8450755,0.835233,0.8326829,0.8382473,0.8542547,0.8753395,0.8846751,0.8889871,0.891911,0.8902133,0.8884225,0.8839593,0.8804263,0.8712528,0.8586171,0.8484284,0.8379443,0.8261699,0.8154901,0.8054007,0.7986911,0.794715,0.792985,0.7930685,0.7954301,0.7997481,0.8054823,0.8131636,0.8221502,0.8313458,0.8414794,0.8543647,0.8729007,0.903424,0.9475237,0.9957482,1.033591,1.057146,1.068963,1.07458,1.077915,1.080903,1.083806,1.086241,1.087246,1.086762,1.085427,1.084628,1.083699,1.081765,1.080707,1.079258,1.078722,1.078459,1.079076,1.081407,1.085823,1.092352,1.100582,1.111326,1.123655,1.139228,1.156411,1.175288,1.195163,1.215015,1.232903,1.249777,1.26323,1.275659,1.287221,1.299982,1.315605,1.334087,1.353628,1.370761,1.384802,1.393631,1.39804,1.401447,1.402274,1.4028,1.402026,1.401703,1.399992,1.398067,1.395787,1.392723,1.391258,1.388245,1.384534,1.381385,1.377864,1.373848,1.370866,1.36708,1.363245,1.358925,1.355266,1.350551,1.347001,1.342978,1.339079,1.335892,1.331759,1.328451,1.325261,1.321866,1.3187,1.316201,1.313916,1.311163,1.309372,1.307977,1.305942,1.305169,1.303596,1.301996,1.30144,1.300849,1.300985,1.300893
M1-1000464,31.9375,,21-05-2024 08:46,9.1,202-P3-P-5.sam,202,P3,202-P3,Pulp,WVC,4.933333333,0.8998786,0.8830302,0.8660488,0.8497357,0.8410158,0.8397426,0.8441922,0.8632867,0.8823849,0.8915726,0.8966196,0.898223,0.8983723,0.897302,0.8925463,0.88737,0.877691,0.8661016,0.8548402,0.8443624,0.8326904,0.821539,0.8119399,0.8048158,0.8007383,0.7988448,0.7989442,0.8013331,0.8054184,0.8114891,0.819401,0.8286784,0.8381734,0.8482201,0.8611093,0.8798813,0.9109042,0.9552229,1.004159,1.042552,1.066379,1.078337,1.084242,1.087422,1.090389,1.09389,1.095753,1.096983,1.096247,1.095443,1.093244,1.093278,1.091725,1.090384,1.089401,1.089159,1.088286,1.088969,1.09112,1.096295,1.102346,1.110803,1.121251,1.134214,1.149572,1.167178,1.185926,1.206039,1.225842,1.243886,1.260309,1.273847,1.285351,1.296595,1.308004,1.323439,1.340971,1.359162,1.375266,1.388129,1.395361,1.399735,1.402298,1.403112,1.403621,1.402774,1.401682,1.40079,1.398767,1.396181,1.393731,1.39187,1.388595,1.385504,1.382319,1.378779,1.375032,1.371735,1.368229,1.364657,1.36084,1.357137,1.352905,1.349562,1.345492,1.342278,1.339034,1.335306,1.331709,1.328921,1.325918,1.322926,1.320839,1.318491,1.316124,1.314735,1.313094,1.311452,1.310482,1.309382,1.308103,1.307445,1.307148,1.307253,1.307308
M1-1000464,31.3125,,21-05-2024 08:51,9.1,202-P4-P-6.sam,202,P4,202-P4,Pulp,WVC,4.066666667,0.9360526,0.9209735,0.9046133,0.8897132,0.8817837,0.8812603,0.8859228,0.9034417,0.9228486,0.9307327,0.9368649,0.9375498,0.9383371,0.9371653,0.9328998,0.9285747,0.9201285,0.9089434,0.8999376,0.8894436,0.8776528,0.867342,0.8584873,0.8521308,0.847559,0.8457742,0.8463183,0.8487511,0.852592,0.8582942,0.8659858,0.8746482,0.8834621,0.8933542,0.9057645,0.9238022,0.9534294,0.9954409,1.041527,1.077686,1.099077,1.109824,1.115517,1.118599,1.1203,1.122886,1.124629,1.125812,1.125937,1.125069,1.123668,1.12322,1.12193,1.120914,1.120143,1.120082,1.119576,1.120283,1.122912,1.127662,1.133491,1.141799,1.151262,1.163896,1.178139,1.193509,1.211347,1.23007,1.247842,1.263573,1.278393,1.291012,1.30164,1.31212,1.323515,1.336174,1.352422,1.368931,1.383709,1.394812,1.401333,1.405555,1.407016,1.408177,1.407397,1.407385,1.405408,1.403658,1.40247,1.399836,1.397414,1.394835,1.392289,1.388832,1.386118,1.382847,1.379525,1.37666,1.372851,1.368566,1.365381,1.361714,1.358679,1.354968,1.351471,1.347699,1.344794,1.341543,1.338062,1.335553,1.332895,1.329523,1.327861,1.325522,1.323225,1.322093,1.320532,1.318944,1.318159,1.317108,1.316082,1.315544,1.31453,1.313692,1.312889
M1-1000464,31.3125,,21-05-2024 08:51,9.1,202-P4-P-7.sam,202,P4,202-P4,Pulp,WVC,4.066666667,0.9390933,0.9237824,0.9077843,0.8936303,0.8849378,0.883466,0.8869405,0.9045655,0.9261568,0.9339857,0.9390239,0.9386257,0.9401304,0.9381959,0.9351196,0.9298339,0.9213287,0.9103926,0.9012427,0.8910811,0.8799214,0.8692309,0.8601296,0.8533219,0.848422,0.8470563,0.8479061,0.8505381,0.8540351,0.8594993,0.8671541,0.8762732,0.8854879,0.8953496,0.9074369,0.9250245,0.9551631,0.9969907,1.042279,1.078311,1.10016,1.11075,1.116033,1.119011,1.120293,1.123394,1.125103,1.126351,1.126846,1.125495,1.124065,1.123236,1.122811,1.122078,1.120552,1.120862,1.120652,1.120912,1.123248,1.128331,1.133798,1.142159,1.151922,1.164211,1.178471,1.193884,1.211978,1.229984,1.247543,1.263965,1.278762,1.291353,1.301649,1.312513,1.323925,1.33692,1.352414,1.369357,1.384103,1.394832,1.40178,1.405993,1.40742,1.408184,1.407765,1.406938,1.405845,1.404391,1.402803,1.400188,1.397757,1.395169,1.392614,1.389162,1.386739,1.382847,1.379823,1.376953,1.37342,1.36885,1.365926,1.361983,1.359203,1.355226,1.351978,1.348193,1.34528,1.34178,1.338764,1.336249,1.333123,1.330202,1.328094,1.32574,1.323659,1.32209,1.320752,1.319158,1.318374,1.317333,1.316519,1.315764,1.314826,1.314513,1.31349
M1-1000464,31.3125,,21-05-2024 08:51,9.1,202-P4-P-8.sam,202,P4,202-P4,Pulp,WVC,4.066666667,0.9382486,0.9214724,0.9055285,0.8919353,0.8832157,0.8834962,0.8869228,0.9023262,0.9228488,0.9318175,0.9367958,0.9385696,0.9384335,0.9371653,0.9322155,0.9277436,0.9198701,0.9094793,0.90066,0.8895546,0.8784496,0.868514,0.8596125,0.8527533,0.8482784,0.8470573,0.8476563,0.8503504,0.8538048,0.8592861,0.8672065,0.8760108,0.8855113,0.8952899,0.9067131,0.9243045,0.953385,0.9950669,1.039981,1.076317,1.097932,1.108124,1.113435,1.116563,1.118295,1.121004,1.123063,1.123459,1.123631,1.1224,1.121455,1.120291,1.119934,1.118943,1.118155,1.117909,1.118096,1.118073,1.120823,1.125237,1.130821,1.139501,1.148909,1.160885,1.175144,1.190493,1.208245,1.226532,1.243927,1.259616,1.274436,1.287747,1.298615,1.308352,1.320116,1.332729,1.34931,1.366524,1.381655,1.39358,1.400907,1.405152,1.406998,1.407772,1.407792,1.40653,1.405444,1.403659,1.402434,1.39914,1.397127,1.394823,1.391964,1.388839,1.386116,1.382543,1.379226,1.376075,1.372277,1.367742,1.364839,1.360901,1.357366,1.353691,1.350468,1.346462,1.343098,1.340118,1.336428,1.333713,1.331078,1.327964,1.325648,1.323327,1.321053,1.319928,1.318161,1.316373,1.31559,1.314734,1.313435,1.312976,1.31185,1.311325,1.310541
M1-1000464,31.1875,,21-05-2024 08:52,9.1,202-P4-P-9.sam,202,P4,202-P4,Pulp,WVC,4.066666667,0.9421432,0.9270769,0.9128749,0.8982182,0.8892048,0.887632,0.8908609,0.9096374,0.9280951,0.936689,0.9416022,0.9430633,0.9454667,0.9425701,0.9383227,0.934536,0.9270149,0.9159174,0.9063981,0.896863,0.8861914,0.8761015,0.8678321,0.8613307,0.8563772,0.8555622,0.8565053,0.8590656,0.8625041,0.8682386,0.8759475,0.8844879,0.8934206,0.9028189,0.9146212,0.9322239,0.9609044,1.002006,1.046592,1.081481,1.102374,1.112013,1.116987,1.120412,1.121577,1.123877,1.126358,1.127118,1.12724,1.126302,1.124838,1.123598,1.12364,1.122509,1.121986,1.121886,1.121368,1.122406,1.124904,1.128943,1.135191,1.143335,1.152109,1.164095,1.178109,1.193769,1.210703,1.228174,1.245628,1.26129,1.275411,1.288734,1.299343,1.309379,1.320398,1.332975,1.348756,1.365641,1.381049,1.391706,1.399504,1.404302,1.406428,1.406819,1.406431,1.406044,1.404616,1.403158,1.401215,1.398407,1.396376,1.393702,1.390978,1.387786,1.385149,1.381927,1.378013,1.374911,1.371098,1.366626,1.363461,1.360094,1.356552,1.352617,1.348899,1.345445,1.342112,1.338648,1.335495,1.332777,1.330145,1.326565,1.324923,1.322225,1.320126,1.3188,1.317457,1.315692,1.314653,1.313541,1.312621,1.3118,1.310677,1.309841,1.308957
M1-1000464,31.1875,,21-05-2024 08:52,9.1,202-P4-P-10.sam,202,P4,202-P4,Pulp,WVC,4.066666667,0.942332,0.9263919,0.911392,0.896951,0.8880363,0.8865247,0.8909115,0.9074184,0.928095,0.9355933,0.9417341,0.9413162,0.943535,0.9415073,0.9374353,0.934327,0.9259439,0.9148659,0.9062345,0.896513,0.8850923,0.875333,0.8673521,0.860396,0.8558814,0.854459,0.8555971,0.8584157,0.8616151,0.8673722,0.875352,0.8841344,0.8928048,0.9021692,0.9141057,0.9315063,0.9604353,1.000796,1.044728,1.079961,1.100758,1.110706,1.1163,1.118861,1.120121,1.122869,1.12491,1.125657,1.125418,1.125487,1.123972,1.122715,1.12237,1.121277,1.120474,1.120808,1.120567,1.120496,1.123223,1.127949,1.133792,1.141729,1.151506,1.16341,1.177059,1.192435,1.209742,1.227455,1.24459,1.260553,1.27433,1.288042,1.298927,1.308266,1.320055,1.332589,1.34841,1.366045,1.381098,1.392534,1.399514,1.404671,1.406048,1.407237,1.406838,1.406438,1.404979,1.403164,1.401626,1.399089,1.396689,1.394103,1.391994,1.388717,1.385452,1.381926,1.378017,1.375208,1.371671,1.367178,1.363997,1.360355,1.356811,1.352875,1.349399,1.345689,1.342354,1.339122,1.335496,1.333006,1.330147,1.326792,1.324929,1.322227,1.319911,1.3188,1.317239,1.315487,1.314659,1.313534,1.312395,1.311578,1.310686,1.309821,1.308652
M1-1000464,31.25,,21-05-2024 08:52,9.1,202-P4-P-11.sam,202,P4,202-P4,Pulp,WVC,4.066666667,0.9416273,0.9271091,0.9106736,0.8949604,0.8868057,0.8844277,0.8878065,0.9065441,0.926017,0.9337139,0.9387566,0.9393643,0.9409389,0.9389673,0.9351207,0.9308484,0.9233179,0.9123831,0.9036255,0.8935505,0.8825786,0.8727279,0.8646061,0.858254,0.853489,0.8527478,0.8538246,0.8561913,0.8595153,0.8651108,0.8726373,0.8814675,0.8907123,0.8997533,0.9109808,0.9287283,0.9576334,0.9981533,1.042066,1.077174,1.097394,1.108202,1.113782,1.116487,1.118128,1.119975,1.122508,1.122978,1.123607,1.122771,1.120963,1.119825,1.119518,1.118572,1.118134,1.117774,1.117384,1.118136,1.120428,1.124904,1.130819,1.139113,1.148552,1.160471,1.174121,1.189795,1.207115,1.225108,1.242518,1.258534,1.273277,1.286221,1.297142,1.307212,1.319029,1.332691,1.348483,1.366504,1.381628,1.393921,1.400862,1.405617,1.407766,1.408123,1.407334,1.407328,1.405798,1.404322,1.402396,1.400153,1.397415,1.395108,1.392286,1.389105,1.386407,1.382842,1.37921,1.376075,1.37255,1.368289,1.36509,1.361156,1.357608,1.353667,1.350434,1.346445,1.34333,1.339621,1.336195,1.333475,1.330614,1.327267,1.325178,1.322665,1.320587,1.318816,1.317278,1.315711,1.314684,1.313384,1.312484,1.311929,1.31092,1.310458,1.309417
M1-1000464,31,,21-05-2024 08:56,9.1,202-P5-P-1.sam,202,P5,202-P5,Pulp,WVC,4.533333333,0.8842022,0.8685234,0.8516709,0.8358039,0.8285152,0.8296087,0.8346154,0.8569121,0.8793883,0.8885421,0.8975083,0.8969802,0.8976719,0.8921923,0.8858057,0.8795227,0.8680946,0.8533065,0.8405094,0.8267252,0.8120247,0.7987435,0.7867656,0.778601,0.7727042,0.769365,0.7693574,0.7709338,0.7739534,0.7799898,0.7885455,0.7983735,0.8084534,0.8189263,0.8325388,0.8539692,0.8896291,0.9418065,0.9999346,1.047559,1.07581,1.089097,1.096595,1.100198,1.101857,1.105528,1.10812,1.108813,1.10764,1.106286,1.103407,1.10147,1.099803,1.097442,1.09502,1.09363,1.092594,1.092311,1.094258,1.099006,1.106424,1.11635,1.127891,1.143398,1.161602,1.181871,1.204326,1.227214,1.24928,1.268501,1.285809,1.300655,1.31224,1.323519,1.336159,1.348748,1.363357,1.379753,1.392235,1.401861,1.408079,1.412096,1.41314,1.413395,1.41322,1.412583,1.410695,1.409408,1.40731,1.405076,1.402894,1.400293,1.397555,1.394664,1.391955,1.388635,1.385418,1.382483,1.379327,1.374996,1.371911,1.368634,1.365182,1.361847,1.358664,1.355318,1.352576,1.349093,1.346096,1.343651,1.341297,1.338474,1.336534,1.334153,1.332087,1.330941,1.329502,1.328185,1.327321,1.326202,1.325355,1.324651,1.323466,1.322732,1.321512
M1-1000464,31,,21-05-2024 08:56,9.1,202-P5-P-2.sam,202,P5,202-P5,Pulp,WVC,4.533333333,0.9311764,0.9167137,0.9018753,0.8876227,0.8810747,0.8829314,0.8892866,0.9113274,0.9343867,0.9446189,0.9505002,0.9517456,0.9527205,0.9494544,0.9435925,0.9373985,0.9266906,0.9140685,0.9016864,0.8876731,0.8735621,0.8599918,0.8486123,0.8402452,0.8339235,0.8299344,0.830012,0.8326393,0.8359988,0.8420604,0.8510939,0.8609761,0.8712444,0.8823986,0.8963259,0.9175414,0.9529599,1.002863,1.056445,1.097785,1.122578,1.133855,1.14025,1.143407,1.144718,1.147535,1.149471,1.150245,1.149777,1.148707,1.147087,1.145466,1.144632,1.143657,1.14193,1.141353,1.141022,1.14106,1.143363,1.148438,1.154476,1.163555,1.174276,1.187279,1.202485,1.218801,1.237367,1.255289,1.272512,1.288508,1.301756,1.314278,1.324058,1.333023,1.342991,1.353364,1.366849,1.380915,1.393064,1.402267,1.408069,1.412132,1.413575,1.413816,1.413185,1.41217,1.410706,1.409407,1.407342,1.40537,1.402186,1.399976,1.397225,1.394343,1.39164,1.388326,1.384518,1.381897,1.378461,1.374449,1.371635,1.368101,1.365183,1.361321,1.358151,1.354567,1.352082,1.348609,1.345618,1.343415,1.341066,1.338241,1.336526,1.334377,1.332088,1.331169,1.329946,1.328623,1.327772,1.327091,1.326048,1.325624,1.324176,1.323039,1.322525
M1-1000464,31,,21-05-2024 08:56,9.1,202-P5-P-3.sam,202,P5,202-P5,Pulp,WVC,4.533333333,0.9328384,0.9174027,0.9022353,0.8889177,0.8821856,0.8828298,0.8904319,0.9113272,0.9355155,0.9446098,0.9515535,0.9527224,0.9545953,0.950538,0.9443762,0.9387955,0.9283501,0.9143791,0.9025282,0.8889942,0.8746529,0.8619156,0.8503873,0.841678,0.835536,0.8323741,0.8326512,0.8346415,0.8377878,0.8440828,0.853056,0.8629147,0.8731828,0.8841355,0.89797,0.9194245,0.9546199,1.004267,1.057043,1.098588,1.12255,1.133855,1.14025,1.14341,1.144672,1.146992,1.14896,1.149773,1.149837,1.149184,1.146636,1.145474,1.144631,1.143682,1.14234,1.141744,1.141401,1.141415,1.143345,1.148782,1.154476,1.163895,1.174284,1.187594,1.202128,1.218749,1.236642,1.254943,1.272093,1.287767,1.301356,1.313487,1.32324,1.331843,1.342211,1.352584,1.366459,1.380435,1.391798,1.401811,1.407168,1.411245,1.412744,1.413387,1.412366,1.411786,1.409919,1.408673,1.406945,1.404316,1.401831,1.399313,1.396893,1.393694,1.391012,1.387712,1.384218,1.381306,1.377887,1.373878,1.370801,1.367293,1.364391,1.3608,1.357386,1.354063,1.351097,1.348123,1.34538,1.34295,1.340143,1.337559,1.33539,1.333697,1.331643,1.330502,1.329278,1.327543,1.327116,1.325981,1.325128,1.324409,1.323236,1.322765,1.321853
M1-1000464,31,,21-05-2024 08:56,9.1,202-P5-P-4.sam,202,P5,202-P5,Pulp,WVC,4.533333333,0.9327217,0.9182119,0.9026693,0.8879289,0.8822368,0.8840391,0.8903743,0.9112977,0.9332606,0.9435115,0.9493521,0.9518159,0.9518179,0.9476762,0.9432295,0.9374533,0.9267398,0.9134564,0.9018795,0.8882702,0.8748727,0.8624736,0.851173,0.8434101,0.8370779,0.8340462,0.8343969,0.8363212,0.8394305,0.8454514,0.8541869,0.8643137,0.874563,0.8853005,0.8987402,0.9190561,0.9536117,1.002656,1.054187,1.095128,1.119701,1.130432,1.136306,1.139102,1.140513,1.14333,1.144958,1.146269,1.145941,1.14544,1.143397,1.141529,1.141211,1.139916,1.138729,1.138194,1.137539,1.137387,1.140103,1.144549,1.151383,1.160371,1.170394,1.183107,1.198609,1.214481,1.232737,1.251281,1.268346,1.283969,1.297511,1.309634,1.319729,1.328303,1.338704,1.3498,1.363208,1.378027,1.390481,1.399675,1.40625,1.4095,1.41145,1.41212,1.411577,1.411429,1.409532,1.408278,1.40619,1.403603,1.401177,1.398965,1.396219,1.393042,1.390069,1.386793,1.383619,1.380424,1.377021,1.372764,1.369972,1.365941,1.363064,1.358988,1.356117,1.352565,1.349868,1.346679,1.343717,1.34131,1.338532,1.335502,1.333802,1.331687,1.32987,1.328514,1.327304,1.325577,1.325145,1.324005,1.323332,1.322745,1.32146,1.32086,1.320059
M1-1000464,30.9375,,21-05-2024 08:56,9.1,202-P5-P-5.sam,202,P5,202-P5,Pulp,WVC,4.533333333,0.9323149,0.9178233,0.9024729,0.8873467,0.8808196,0.881552,0.886766,0.905532,0.9286436,0.9366614,0.9439908,0.944684,0.9449713,0.942701,0.9382156,0.9324554,0.9231201,0.9110051,0.9001867,0.8878418,0.8747716,0.8631382,0.8525406,0.8450931,0.8400294,0.8365407,0.8367264,0.8396177,0.8429387,0.848825,0.8575861,0.8667756,0.8764275,0.8868655,0.8996896,0.9195307,0.9520257,0.9973387,1.047015,1.085781,1.107647,1.118469,1.124453,1.127431,1.129013,1.131676,1.133823,1.134577,1.134984,1.133756,1.132167,1.130554,1.129754,1.128833,1.127636,1.127399,1.126745,1.126814,1.129435,1.134387,1.140607,1.148947,1.158396,1.171056,1.185794,1.201557,1.219184,1.237171,1.254022,1.269912,1.284344,1.296675,1.307122,1.316757,1.327493,1.340086,1.355262,1.371957,1.386795,1.398388,1.405838,1.410393,1.412182,1.412079,1.412755,1.41171,1.410285,1.408982,1.406902,1.404632,1.401877,1.399895,1.396557,1.393968,1.390989,1.387706,1.383902,1.381004,1.377277,1.373022,1.369669,1.365648,1.362255,1.358701,1.35506,1.351543,1.348141,1.344734,1.341591,1.33851,1.335533,1.332758,1.330636,1.328134,1.325878,1.324544,1.323349,1.321627,1.320521,1.319344,1.318548,1.317883,1.316486,1.315631,1.31441
M1-1000464,31.875,,21-05-2024 10:38,9.1,203-P1-P-1.sam,203,P1,203-P1,Pulp,WVC,4.8,0.7336788,0.7142184,0.6929627,0.673573,0.6612595,0.6575142,0.6588615,0.6762947,0.6943032,0.7027884,0.7069482,0.7068281,0.7056805,0.700435,0.6929085,0.6855685,0.6746119,0.6604758,0.6474783,0.6342315,0.6210851,0.6088017,0.5988362,0.590996,0.5860026,0.5835603,0.5834432,0.5848658,0.587783,0.5924879,0.5993986,0.6075812,0.6157234,0.6250222,0.6377727,0.6566483,0.6885613,0.738049,0.7947288,0.8426272,0.8731552,0.8890035,0.8976167,0.901757,0.9047176,0.9087047,0.9116392,0.9120725,0.9106408,0.907992,0.9049814,0.9009543,0.8977256,0.8938368,0.890523,0.8876281,0.8856741,0.8849402,0.88603,0.8896984,0.8961453,0.9065115,0.9191762,0.9362365,0.9569687,0.9812999,1.009497,1.039535,1.070949,1.100783,1.127894,1.151505,1.172212,1.193074,1.216105,1.244836,1.27993,1.317194,1.350029,1.373399,1.387339,1.394789,1.39908,1.40107,1.400905,1.401401,1.400437,1.398441,1.39772,1.39569,1.393912,1.390202,1.387379,1.383805,1.380128,1.376415,1.37146,1.368212,1.363609,1.358765,1.354098,1.348866,1.344027,1.338807,1.333358,1.327609,1.322773,1.316976,1.311745,1.307405,1.30177,1.296881,1.292543,1.288128,1.283673,1.280711,1.276853,1.273813,1.27107,1.268662,1.266241,1.264667,1.263236,1.262455,1.261604
M1-1000464,31.8125,,21-05-2024 10:38,9.1,203-P1-P-2.sam,203,P1,203-P1,Pulp,WVC,4.8,0.7333201,0.7137315,0.6934114,0.673553,0.6620047,0.6587545,0.6593295,0.6781573,0.6961949,0.7045884,0.707381,0.7084387,0.7072875,0.7014599,0.6942198,0.686949,0.6751713,0.6613333,0.6488366,0.6359545,0.6220069,0.6098413,0.5997815,0.5922129,0.5873028,0.5850155,0.5848168,0.586307,0.5891637,0.5936934,0.6007229,0.6089823,0.6174591,0.6267937,0.6391358,0.6580756,0.6903813,0.7397031,0.7962914,0.8439174,0.8741517,0.8900864,0.8983337,0.9029409,0.9055997,0.9095122,0.9119943,0.9129167,0.9111913,0.9087902,0.9055191,0.9019721,0.8987046,0.894587,0.8917036,0.8888859,0.8865604,0.8859791,0.8870332,0.8904836,0.8971524,0.907477,0.9201483,0.9372187,0.9579829,0.9822983,1.010127,1.040407,1.07137,1.10099,1.127906,1.152022,1.172459,1.193046,1.216089,1.244824,1.280244,1.317525,1.350375,1.373718,1.387303,1.39519,1.399044,1.40143,1.401239,1.401348,1.401236,1.398806,1.398425,1.39597,1.393889,1.390496,1.387739,1.384691,1.380106,1.376716,1.372319,1.368488,1.364149,1.35932,1.354885,1.349366,1.344263,1.339038,1.333813,1.328063,1.322997,1.317178,1.312192,1.307402,1.301971,1.29686,1.292728,1.288127,1.283846,1.280692,1.277214,1.273997,1.271424,1.268803,1.266577,1.264988,1.263697,1.262833,1.261945
M1-1000464,31.6875,,21-05-2024 10:38,9.1,203-P1-P-3.sam,203,P1,203-P1,Pulp,WVC,4.8,0.7468493,0.7267476,0.706004,0.687208,0.6768268,0.6734697,0.6764257,0.6938981,0.7133763,0.7231892,0.7265746,0.7266186,0.7250896,0.7204418,0.7137097,0.7058343,0.6935055,0.6790426,0.6663706,0.6531922,0.6396343,0.6275004,0.6166502,0.6083523,0.6035526,0.6010145,0.6008542,0.6025914,0.6053798,0.6099214,0.6172977,0.6255773,0.6342113,0.6440095,0.6566474,0.6762279,0.7093282,0.7600825,0.818,0.8665439,0.898006,0.9137492,0.9221345,0.9266717,0.9298134,0.9334309,0.9364995,0.9370093,0.9357452,0.9328545,0.9296198,0.9257283,0.922779,0.9191737,0.9157926,0.9129548,0.9110324,0.9102098,0.911561,0.9152792,0.922033,0.9324861,0.9460088,0.9629542,0.9840696,1.008493,1.036792,1.066977,1.097808,1.127209,1.154108,1.17702,1.196915,1.216705,1.238412,1.265568,1.297543,1.329922,1.358591,1.377995,1.390023,1.396006,1.399724,1.401323,1.401115,1.401217,1.400362,1.398676,1.39793,1.395578,1.393541,1.390457,1.388038,1.384289,1.380998,1.377612,1.372888,1.369923,1.365227,1.360987,1.357031,1.35249,1.347557,1.343243,1.33838,1.333262,1.3288,1.323935,1.319545,1.315464,1.310706,1.306499,1.302885,1.298745,1.295088,1.292459,1.289037,1.286362,1.283923,1.281677,1.279734,1.278774,1.277763,1.276763,1.275891
M1-1000464,31.6875,,21-05-2024 10:38,9.1,203-P1-P-4.sam,203,P1,203-P1,Pulp,WVC,4.8,0.7593499,0.7392309,0.7190791,0.7007594,0.6893916,0.6860077,0.6887208,0.7069933,0.7278771,0.7366978,0.7414549,0.7407712,0.7403994,0.7344391,0.7273036,0.7199133,0.7080921,0.6930458,0.6797004,0.6660196,0.6523409,0.6396025,0.6290113,0.6207282,0.615482,0.6131206,0.6126725,0.6139888,0.617157,0.6221663,0.6296043,0.6380513,0.6468431,0.6568302,0.6698769,0.6893746,0.7229318,0.7746608,0.8337499,0.8831313,0.9145175,0.9307321,0.9391115,0.9437402,0.9466885,0.9506285,0.9533379,0.9535426,0.952441,0.9502288,0.9466822,0.9432492,0.9396757,0.9357798,0.9327847,0.9299388,0.9276684,0.9273593,0.9287496,0.9325337,0.9392795,0.9498903,0.9635018,0.9808654,1.001904,1.026394,1.054938,1.08517,1.115404,1.144548,1.170861,1.193779,1.213001,1.232282,1.25254,1.278304,1.307965,1.338766,1.364839,1.382486,1.392982,1.398571,1.402226,1.403393,1.403131,1.403174,1.402251,1.400149,1.399367,1.396973,1.394938,1.392064,1.389011,1.385878,1.382536,1.379119,1.374935,1.371641,1.367477,1.363183,1.359443,1.354592,1.35038,1.346013,1.342069,1.336626,1.333037,1.3283,1.324059,1.320338,1.315926,1.311424,1.30838,1.304991,1.301468,1.299006,1.296126,1.293609,1.291561,1.289537,1.287756,1.286784,1.285559,1.285156,1.284671
M1-1000464,31.5625,,21-05-2024 10:38,9.1,203-P1-P-5.sam,203,P1,203-P1,Pulp,WVC,4.8,0.7797335,0.7610733,0.7408971,0.7224809,0.711893,0.7098091,0.7134731,0.7326458,0.7545092,0.7632921,0.7683997,0.7681854,0.7677193,0.7627192,0.7545837,0.7467029,0.7348424,0.7199246,0.7061694,0.6922286,0.6781434,0.6655357,0.6541486,0.6460178,0.6409372,0.6380541,0.6377847,0.6393459,0.6423244,0.6473054,0.654935,0.6639222,0.6729073,0.6829798,0.6966391,0.7169155,0.75144,0.8044107,0.8641986,0.9144116,0.9461987,0.9622372,0.9704756,0.9748355,0.9776965,0.981884,0.9850311,0.9854621,0.9837172,0.981294,0.9785405,0.9748141,0.971666,0.9682108,0.965286,0.9626569,0.9605883,0.9598917,0.9612496,0.965739,0.9722723,0.9831939,0.9966999,1.014043,1.035092,1.05924,1.086946,1.116212,1.145712,1.17316,1.198252,1.219074,1.236566,1.2539,1.272744,1.295788,1.322009,1.347924,1.370165,1.385164,1.394084,1.398975,1.40254,1.403691,1.402609,1.403051,1.402177,1.399728,1.399323,1.396899,1.394539,1.391632,1.388701,1.385774,1.382194,1.379418,1.375208,1.372215,1.368,1.364024,1.360513,1.356163,1.352159,1.347987,1.343744,1.339738,1.336105,1.331726,1.328393,1.325028,1.320728,1.317223,1.314567,1.311111,1.308308,1.306233,1.303682,1.301572,1.299893,1.298257,1.296641,1.295664,1.29491,1.293971,1.293206
M1-1000464,31.5,,21-05-2024 10:46,9.1,204-P2-P-1.sam,204,P2,204-P2,Pulp,WVC,4.633333333,0.6974043,0.6776261,0.656683,0.6375625,0.6246,0.6202893,0.6215387,0.6377085,0.656029,0.6643133,0.6674786,0.6674948,0.6658951,0.6604213,0.6535442,0.6462774,0.6352762,0.6210564,0.6084406,0.5957545,0.5829538,0.5708289,0.5606541,0.5533035,0.5484319,0.5459603,0.5457501,0.5472721,0.5501366,0.5545561,0.5612251,0.5691507,0.5773852,0.5865935,0.598795,0.6169971,0.6479867,0.6963417,0.7514497,0.7979057,0.8274955,0.8431452,0.851239,0.8551847,0.8585379,0.8621668,0.8644686,0.8649436,0.8633882,0.8610136,0.8581353,0.8540533,0.850719,0.8471559,0.8435772,0.8406652,0.8384764,0.8376063,0.8385109,0.8420199,0.8480881,0.857843,0.8706009,0.8868712,0.9070706,0.9310358,0.9586241,0.9884544,1.01896,1.048716,1.076071,1.099971,1.121331,1.142361,1.166165,1.197573,1.236601,1.279878,1.320213,1.350137,1.369367,1.380309,1.386826,1.389839,1.390691,1.392157,1.391607,1.389127,1.389338,1.386817,1.384312,1.380687,1.37773,1.373525,1.369116,1.365163,1.359605,1.354983,1.349192,1.34325,1.337308,1.331032,1.324613,1.317892,1.31126,1.304316,1.298048,1.291094,1.285043,1.279116,1.272652,1.266601,1.261091,1.256027,1.250775,1.246979,1.242731,1.239121,1.235662,1.232851,1.230054,1.228107,1.226017,1.224714,1.223149
M1-1000464,31.3125,,21-05-2024 10:46,9.1,203-P2-P-1.sam,203,P2,203-P2,Pulp,WVC,4.466666667,0.6998463,0.678793,0.6578795,0.6393185,0.6262175,0.6219049,0.6236141,0.6391983,0.6576537,0.6651075,0.6682786,0.6689235,0.6668305,0.6615623,0.6547846,0.647439,0.636595,0.6224692,0.6095067,0.5969555,0.5836762,0.5719585,0.5620509,0.5545721,0.5498002,0.547379,0.5471286,0.5485935,0.5514395,0.5557883,0.5625752,0.5704989,0.5785747,0.5877611,0.5999169,0.6180932,0.649254,0.6974128,0.7523976,0.7990301,0.8288084,0.8441348,0.852142,0.85646,0.8592843,0.8630067,0.8654662,0.8659638,0.8646577,0.8619248,0.8586094,0.8547409,0.8516362,0.8476374,0.8444388,0.8416486,0.8393006,0.8385524,0.8390442,0.842765,0.8488756,0.858897,0.8714752,0.8877581,0.907997,0.9319656,0.9593647,0.9894947,1.019995,1.049854,1.07766,1.101565,1.122573,1.143912,1.168275,1.199459,1.238676,1.28247,1.322599,1.351887,1.370841,1.381894,1.387527,1.391296,1.392069,1.393129,1.392668,1.390693,1.389802,1.387469,1.385323,1.381827,1.37869,1.374923,1.370256,1.366034,1.360712,1.356362,1.35021,1.344577,1.338557,1.332249,1.325547,1.319026,1.312558,1.305617,1.299342,1.292526,1.286096,1.280322,1.273812,1.267908,1.262577,1.257151,1.252369,1.248192,1.243731,1.240169,1.237002,1.233946,1.231319,1.229153,1.227445,1.225904,1.224429
M1-1000464,31.125,,21-05-2024 10:46,9.1,203-P2-P-2.sam,203,P2,203-P2,Pulp,WVC,4.466666667,0.7051502,0.6838872,0.6623719,0.643397,0.6313615,0.6278169,0.6286128,0.6449234,0.6634969,0.6717783,0.6747813,0.6751548,0.6731598,0.6679639,0.661269,0.6539469,0.6429938,0.6291718,0.6160107,0.6032615,0.5901799,0.5782655,0.5682234,0.5607149,0.5558134,0.5536026,0.5534983,0.5548654,0.5575115,0.5619107,0.56881,0.5767292,0.5848959,0.5941409,0.606244,0.6247238,0.6561086,0.7045397,0.7597246,0.8063294,0.8358828,0.8515996,0.8596941,0.863801,0.8670031,0.8704016,0.8731437,0.8735188,0.8717543,0.8693128,0.8660119,0.8620768,0.8590435,0.8553586,0.8516505,0.8490668,0.8467957,0.845873,0.846786,0.8504421,0.8564918,0.8665891,0.8790241,0.8955909,0.9161346,0.9397543,0.9672006,0.9973294,1.027587,1.057577,1.085004,1.108714,1.129522,1.150536,1.17461,1.205282,1.244318,1.286605,1.325386,1.354803,1.372637,1.382788,1.389776,1.392346,1.393071,1.3941,1.393303,1.391687,1.391122,1.388744,1.38631,1.383291,1.379619,1.376024,1.371704,1.36749,1.362098,1.357751,1.352319,1.346434,1.340848,1.334475,1.327951,1.32182,1.315012,1.308272,1.301957,1.295239,1.289235,1.283571,1.277166,1.271374,1.266185,1.260922,1.256018,1.252189,1.24801,1.244448,1.241045,1.238287,1.235731,1.233861,1.232131,1.230641,1.229632
M1-1000464,31.0625,,21-05-2024 10:47,9.1,203-P2-P-3.sam,203,P2,203-P2,Pulp,WVC,4.466666667,0.7052042,0.6853328,0.6643258,0.644834,0.6332173,0.6296057,0.6309688,0.6478609,0.6658661,0.6728311,0.6763388,0.6772382,0.67557,0.6703452,0.6631194,0.6555811,0.6448604,0.6303982,0.6177223,0.6052599,0.5920174,0.5799763,0.5700933,0.5623215,0.5576733,0.5553374,0.5551128,0.5565265,0.5593701,0.5638175,0.5705192,0.5785699,0.5868135,0.5959831,0.6081684,0.6265834,0.65826,0.7067035,0.7616909,0.8086016,0.8383111,0.8535862,0.8616843,0.8657719,0.8689502,0.8723243,0.8750098,0.8753609,0.8735443,0.8710536,0.8679587,0.8641624,0.8610592,0.8571408,0.8539329,0.8510613,0.8487381,0.8477738,0.8488289,0.8522546,0.8586563,0.8685222,0.8809888,0.8977408,0.9181618,0.9420344,0.9694853,0.9994162,1.030116,1.059592,1.08735,1.111139,1.132067,1.153389,1.177316,1.208377,1.246722,1.288954,1.327843,1.355906,1.373849,1.384347,1.389783,1.393472,1.393775,1.39481,1.394005,1.39205,1.391802,1.388805,1.387332,1.383599,1.380579,1.376583,1.37229,1.368369,1.362941,1.358582,1.353117,1.347489,1.341616,1.335734,1.329401,1.322995,1.316611,1.309839,1.303715,1.297149,1.291127,1.285413,1.278962,1.272931,1.267908,1.26282,1.257864,1.25402,1.24981,1.246252,1.242993,1.239862,1.237522,1.235689,1.233801,1.232784,1.232147
M1-1000464,30.9375,,21-05-2024 10:47,9.1,203-P2-P-4.sam,203,P2,203-P2,Pulp,WVC,4.466666667,0.712389,0.6924384,0.671175,0.6521741,0.6407775,0.6363378,0.6381192,0.6562996,0.6755885,0.682751,0.6871384,0.6869777,0.6852079,0.6798664,0.6728588,0.6656407,0.6534323,0.6395121,0.6269096,0.613835,0.6000303,0.5879989,0.5778545,0.570109,0.5651191,0.5630871,0.5626414,0.5640178,0.5669894,0.5712893,0.5782126,0.5864662,0.5947478,0.6041149,0.6166673,0.6353435,0.6674697,0.7169629,0.7733482,0.8215851,0.8518278,0.8676856,0.875755,0.879923,0.8829574,0.8866132,0.889068,0.8896305,0.8879465,0.8857723,0.8824262,0.8783231,0.8750525,0.8714805,0.8679124,0.8649505,0.8624343,0.8616204,0.8629363,0.8664021,0.873018,0.8831547,0.8960151,0.9131182,0.9338529,0.957979,0.9860123,1.016516,1.047453,1.077726,1.105561,1.129517,1.150091,1.171442,1.194882,1.224835,1.26224,1.301689,1.337636,1.363204,1.378999,1.388015,1.392478,1.394987,1.395226,1.395847,1.395069,1.393049,1.392808,1.390366,1.38764,1.385182,1.381862,1.378366,1.374367,1.370722,1.365498,1.361659,1.356359,1.351248,1.346297,1.34103,1.334801,1.329217,1.323352,1.317113,1.311501,1.305565,1.299622,1.294536,1.288469,1.283255,1.278491,1.273606,1.269015,1.265264,1.261645,1.258016,1.25506,1.25226,1.249959,1.247923,1.246072,1.244887,1.244207
M1-1000464,30.75,,21-05-2024 10:47,9.1,203-P2-P-5.sam,203,P2,203-P2,Pulp,WVC,4.466666667,0.7183488,0.6989785,0.6778347,0.6581418,0.6470314,0.6443661,0.645148,0.6622244,0.6816692,0.6897078,0.6933076,0.6934006,0.6922407,0.6861889,0.6794993,0.672399,0.6607476,0.646462,0.6332219,0.6204963,0.6070943,0.5950431,0.5847983,0.5771939,0.5722356,0.5696824,0.5695982,0.5711124,0.573953,0.5785349,0.5853966,0.5935441,0.6018186,0.6111378,0.6235039,0.6421366,0.6741773,0.7234237,0.7797613,0.8272443,0.8570146,0.8728754,0.8813149,0.8852198,0.8884663,0.8920704,0.8946608,0.8953826,0.8935374,0.8911858,0.8879721,0.8841181,0.8809339,0.8771608,0.8737735,0.8708903,0.8687462,0.8679098,0.8686729,0.872619,0.878774,0.8888798,0.9019284,0.91869,0.9392267,0.9636848,0.9914027,1.021633,1.052544,1.082372,1.109898,1.133571,1.154553,1.175197,1.198825,1.228901,1.26568,1.305383,1.34014,1.365808,1.380884,1.389744,1.395214,1.39725,1.397012,1.397605,1.397264,1.394735,1.394431,1.391761,1.38995,1.386636,1.383461,1.380099,1.376428,1.372188,1.367478,1.363899,1.358486,1.353387,1.34835,1.343047,1.337246,1.33159,1.326105,1.3196,1.313957,1.307917,1.302639,1.297044,1.29152,1.28603,1.281624,1.276731,1.272027,1.268445,1.264578,1.261164,1.258341,1.255834,1.253218,1.251654,1.250153,1.249136,1.248429
M1-1000464,31.1875,,21-05-2024 11:26,9.1,203-P4-P-1.sam,203,P4,203-P4,Pulp,WVC,4.5,0.8555412,0.8361508,0.8163867,0.7999909,0.7906687,0.7892029,0.7929371,0.8098968,0.8296754,0.8391351,0.8427146,0.8450506,0.8440784,0.8406333,0.835459,0.8295481,0.8192086,0.8062467,0.7946067,0.7829608,0.7700245,0.7574566,0.7486915,0.7413398,0.7366635,0.7343238,0.7345821,0.7362673,0.7393215,0.7447465,0.7523368,0.7612401,0.7697317,0.7792282,0.7922528,0.8110306,0.8426589,0.890395,0.9431984,0.9870566,1.014691,1.028502,1.036359,1.039876,1.043213,1.046163,1.04884,1.049315,1.049442,1.048345,1.046125,1.04344,1.041731,1.039249,1.037155,1.035598,1.034418,1.034172,1.03624,1.040409,1.046551,1.055945,1.067525,1.082196,1.100228,1.121146,1.144101,1.167431,1.1911,1.213521,1.233464,1.250227,1.264691,1.278824,1.293288,1.311693,1.333485,1.354839,1.373129,1.387164,1.395691,1.400277,1.402319,1.402837,1.403332,1.402576,1.401064,1.400368,1.398559,1.396848,1.393826,1.39118,1.388684,1.385072,1.382614,1.378943,1.37538,1.372387,1.368277,1.364509,1.361324,1.357247,1.353527,1.349609,1.345427,1.342334,1.338395,1.334739,1.331505,1.328613,1.324689,1.321803,1.318902,1.316362,1.313996,1.31166,1.310136,1.308073,1.306793,1.305581,1.303892,1.303082,1.302962,1.301872,1.30144
M1-1000464,31.1875,,21-05-2024 11:26,9.1,203-P4-P-2.sam,203,P4,203-P4,Pulp,WVC,4.5,0.8659935,0.8475246,0.8283173,0.8126134,0.803198,0.8019248,0.8063914,0.8251876,0.8440833,0.8550121,0.8598181,0.8595593,0.8597465,0.8565275,0.8515413,0.8454461,0.8346925,0.8213808,0.8092949,0.7976291,0.7844126,0.7722788,0.7623544,0.7552994,0.7504003,0.7479296,0.747958,0.7497054,0.7530544,0.7586259,0.7665017,0.7752553,0.7840256,0.7939872,0.8069689,0.8259836,0.8582616,0.90688,0.9606788,1.005261,1.032804,1.046968,1.054561,1.058598,1.061606,1.064173,1.06673,1.067869,1.067477,1.065926,1.063576,1.061395,1.059824,1.057055,1.055102,1.054168,1.052716,1.052541,1.05481,1.059177,1.065334,1.074877,1.086185,1.101286,1.119291,1.140285,1.163198,1.186751,1.209772,1.231819,1.25154,1.267302,1.280985,1.2936,1.30723,1.324418,1.34362,1.362622,1.378737,1.390473,1.397794,1.401532,1.403165,1.40364,1.403736,1.40297,1.401388,1.399997,1.39894,1.396814,1.393907,1.391824,1.388688,1.385712,1.383231,1.379847,1.375972,1.373551,1.369688,1.365892,1.362956,1.359102,1.355607,1.352157,1.348167,1.345271,1.341995,1.338497,1.335671,1.332938,1.330063,1.327123,1.324607,1.322423,1.320436,1.318486,1.316921,1.315272,1.314623,1.313232,1.311969,1.311556,1.311185,1.310475,1.309913
M1-1000464,31.0625,,21-05-2024 11:26,9.1,203-P4-P-3.sam,203,P4,203-P4,Pulp,WVC,4.5,0.8733236,0.8552326,0.8370358,0.8209207,0.8115957,0.8100603,0.815213,0.8341135,0.8549874,0.8636683,0.8689881,0.8700572,0.8692001,0.8664324,0.8618456,0.8546864,0.8444831,0.8312249,0.8184466,0.8066094,0.7933606,0.7810538,0.7722664,0.7645864,0.7594795,0.7568486,0.7567722,0.7585738,0.7620312,0.7675117,0.775196,0.7842235,0.7933743,0.8032342,0.8161581,0.8356552,0.8681668,0.9169576,0.9713978,1.016267,1.043616,1.057606,1.064498,1.06874,1.071296,1.074663,1.077613,1.07823,1.078018,1.076928,1.073874,1.072081,1.070631,1.068177,1.06602,1.064575,1.063726,1.063547,1.06585,1.069712,1.076408,1.086082,1.097361,1.112247,1.130087,1.150448,1.173491,1.196211,1.219162,1.240414,1.259054,1.274925,1.287723,1.300028,1.312976,1.329102,1.346865,1.364042,1.379419,1.390731,1.39767,1.401515,1.403056,1.403532,1.403613,1.402851,1.401325,1.399905,1.398851,1.396775,1.393825,1.391433,1.389018,1.385595,1.382882,1.379539,1.376233,1.372955,1.369372,1.365889,1.362659,1.359087,1.355577,1.352114,1.34811,1.345727,1.342216,1.338682,1.336137,1.333378,1.330477,1.328185,1.325443,1.323503,1.321242,1.319734,1.318344,1.31631,1.315843,1.314616,1.313368,1.312937,1.312213,1.311368,1.310726
M1-1000464,31,,21-05-2024 11:26,9.1,203-P4-P-4.sam,203,P4,203-P4,Pulp,WVC,4.5,0.8792773,0.8623314,0.8445678,0.8274452,0.8200859,0.8203925,0.8232974,0.8433734,0.8634039,0.8736783,0.8776671,0.8800559,0.8800681,0.8764675,0.8710274,0.8644183,0.8534186,0.840211,0.828171,0.8156106,0.802712,0.7904353,0.7807226,0.7731339,0.7677699,0.7653624,0.7654166,0.7672861,0.7708741,0.7760427,0.7838084,0.7930967,0.8020607,0.8119938,0.825181,0.8448396,0.8776044,0.9265603,0.981342,1.025858,1.053437,1.067862,1.074657,1.078787,1.081185,1.084388,1.087124,1.087589,1.087568,1.086233,1.084426,1.081512,1.080193,1.077433,1.075718,1.074835,1.073396,1.073275,1.076013,1.079926,1.086444,1.095506,1.107411,1.122324,1.139975,1.159882,1.182559,1.205212,1.227384,1.247942,1.266701,1.281625,1.293884,1.306229,1.318422,1.333162,1.350703,1.367153,1.381411,1.392326,1.398467,1.402405,1.404218,1.403889,1.40436,1.403571,1.402078,1.400959,1.399499,1.397452,1.394483,1.392083,1.390006,1.38649,1.383785,1.380137,1.376813,1.374104,1.369902,1.366459,1.363741,1.36014,1.356855,1.352857,1.349329,1.346937,1.343655,1.340313,1.337771,1.334747,1.332045,1.3295,1.327409,1.325469,1.323381,1.321652,1.320464,1.318644,1.318167,1.317142,1.315731,1.315403,1.314977,1.314239,1.31379
M1-1000464,31.0625,,21-05-2024 11:26,9.1,203-P4-P-5.sam,203,P4,203-P4,Pulp,WVC,4.5,0.8798796,0.8620418,0.8439555,0.8278511,0.8197484,0.8186052,0.8246018,0.8425839,0.8635189,0.8729508,0.8778725,0.8793359,0.8793614,0.8751386,0.8701908,0.8643464,0.8530493,0.8400947,0.8282173,0.8160415,0.8029721,0.7900845,0.7806338,0.772847,0.7676205,0.7656749,0.7654971,0.7666437,0.7703462,0.7759629,0.7836742,0.7927315,0.8019083,0.8120575,0.8251982,0.8448274,0.8777066,0.9270211,0.9815553,1.025578,1.053236,1.067182,1.074649,1.078451,1.081215,1.083947,1.086749,1.087203,1.087197,1.086724,1.083629,1.08115,1.079444,1.077137,1.075715,1.074476,1.073176,1.073625,1.075357,1.079968,1.086166,1.09585,1.107419,1.12235,1.14002,1.160198,1.182586,1.205272,1.2277,1.247624,1.266724,1.281324,1.293861,1.30551,1.318121,1.333229,1.350727,1.366776,1.381043,1.391995,1.398478,1.401553,1.403909,1.404346,1.403569,1.402849,1.401349,1.400287,1.399191,1.396781,1.394144,1.391448,1.389394,1.386536,1.383185,1.379842,1.376821,1.373238,1.369654,1.366173,1.363212,1.359879,1.356101,1.353143,1.349351,1.346462,1.343424,1.340102,1.337302,1.334984,1.331836,1.329527,1.326991,1.325253,1.323196,1.321677,1.320283,1.318653,1.317982,1.316994,1.315806,1.315525,1.315209,1.314902,1.314925
M1-1000464,30.3125,,21-05-2024 11:29,9.1,203-P3-P-1.sam,203,P3,203-P3,Pulp,WVC,4.733333333,0.750295,0.7301093,0.7093226,0.6910617,0.6793367,0.6758329,0.6785881,0.6933315,0.7121248,0.7206263,0.7235599,0.7249709,0.7236692,0.7190503,0.7141424,0.7074455,0.6969824,0.6838015,0.6720096,0.6600048,0.6470347,0.6352456,0.6264317,0.6191738,0.6144603,0.6123313,0.6120914,0.6132391,0.6162689,0.62122,0.6282609,0.6362895,0.6442805,0.6532807,0.6652638,0.6832141,0.7139587,0.7603294,0.8136842,0.8585827,0.8874675,0.9023916,0.9107549,0.9154071,0.9185335,0.9223,0.9256344,0.9267464,0.9260023,0.9240968,0.921133,0.9177008,0.9149866,0.9114766,0.908561,0.9064352,0.9043619,0.9036996,0.9051011,0.9089292,0.9146858,0.9240677,0.9360277,0.9519525,0.9711779,0.9936643,1.019658,1.047391,1.075263,1.102516,1.127858,1.149127,1.168374,1.187157,1.208007,1.235526,1.268881,1.305371,1.337996,1.363283,1.378651,1.387266,1.392123,1.394407,1.395697,1.395615,1.394552,1.393134,1.392275,1.390588,1.387172,1.384539,1.381861,1.378101,1.374402,1.370241,1.365911,1.362094,1.356824,1.351722,1.347031,1.341297,1.336085,1.330232,1.324404,1.319088,1.31389,1.308138,1.303002,1.298103,1.292551,1.288061,1.283247,1.279235,1.274938,1.271707,1.268764,1.265214,1.263091,1.260545,1.25818,1.256955,1.255771,1.254518,1.253559
M1-1000464,30.1875,,21-05-2024 11:29,9.1,203-P3-P-2.sam,203,P3,203-P3,Pulp,WVC,4.733333333,0.7751936,0.7561193,0.7368639,0.7189528,0.7075344,0.7055875,0.7083829,0.7260591,0.7463565,0.7552981,0.7594266,0.7609408,0.7599928,0.7555947,0.7500522,0.7425511,0.7315792,0.7177848,0.7050287,0.6927385,0.6791669,0.6668801,0.6572553,0.6498344,0.6446639,0.6419538,0.6419323,0.6435946,0.6466611,0.6515278,0.6589366,0.6675811,0.6761205,0.685673,0.6983061,0.7173619,0.74943,0.7986936,0.8549637,0.902009,0.9320062,0.9476106,0.9558781,0.960896,0.9645652,0.967837,0.9709436,0.9715418,0.9711234,0.9694376,0.9664162,0.9630623,0.960827,0.9572293,0.9545252,0.9519502,0.9505178,0.950034,0.951213,0.9552462,0.9614534,0.9714162,0.9840498,1.000444,1.020123,1.043374,1.069991,1.097473,1.125483,1.152191,1.177035,1.197315,1.215684,1.232966,1.25227,1.275776,1.303813,1.332925,1.35782,1.376247,1.387119,1.39304,1.396859,1.397498,1.398359,1.397762,1.396364,1.39524,1.394296,1.392252,1.389236,1.387073,1.384096,1.380829,1.377702,1.374079,1.36992,1.366611,1.362598,1.358215,1.354678,1.349755,1.34536,1.341501,1.336569,1.332409,1.327858,1.323978,1.319922,1.315747,1.311735,1.308009,1.304385,1.301271,1.298062,1.295456,1.292881,1.290358,1.288591,1.287082,1.285071,1.284229,1.283274,1.282097,1.281299
M1-1000464,30.125,,21-05-2024 11:29,9.1,203-P3-P-3.sam,203,P3,203-P3,Pulp,WVC,4.733333333,0.7798233,0.7604659,0.7399012,0.7214999,0.7105033,0.7084612,0.7119249,0.7303206,0.7499425,0.7587324,0.7627627,0.7641316,0.7630385,0.7584475,0.7527293,0.745454,0.734794,0.720907,0.7082997,0.6956478,0.6820241,0.6697152,0.6599431,0.652361,0.6472523,0.6447684,0.6447446,0.6461312,0.6491354,0.6542653,0.6614367,0.6697569,0.6785508,0.6883701,0.7009655,0.7202654,0.7526456,0.8014567,0.8579894,0.9050179,0.9352757,0.9512116,0.9592897,0.9636051,0.9670449,0.9709901,0.9742827,0.9748302,0.9743109,0.972219,0.969458,0.9662429,0.9636547,0.9602281,0.9574872,0.9554539,0.9534472,0.9529212,0.9545177,0.9582086,0.964623,0.9743112,0.9869696,1.003414,1.023369,1.046434,1.072921,1.100533,1.128418,1.155178,1.179326,1.199943,1.217806,1.235082,1.25349,1.277087,1.305176,1.333986,1.358532,1.376593,1.387488,1.393451,1.397265,1.39822,1.398317,1.39853,1.397083,1.395927,1.394947,1.392549,1.389547,1.387414,1.385069,1.381387,1.377984,1.374371,1.370484,1.366879,1.362576,1.35848,1.354663,1.350002,1.345342,1.34148,1.336542,1.332633,1.328313,1.323728,1.320143,1.315958,1.311936,1.308195,1.304995,1.301472,1.29865,1.295633,1.293255,1.290748,1.289162,1.287627,1.285618,1.28476,1.283739,1.282513,1.281942
M1-1000464,30.125,,21-05-2024 11:29,9.1,203-P3-P-4.sam,203,P3,203-P3,Pulp,WVC,4.733333333,0.8015063,0.7816581,0.7616597,0.7437216,0.7335886,0.7328991,0.7366837,0.7552774,0.7772768,0.7870149,0.7897458,0.7924358,0.7906613,0.7866483,0.7798785,0.7730864,0.762114,0.7481506,0.7348729,0.7222719,0.7081696,0.6959404,0.6858186,0.6778507,0.6723539,0.669866,0.6698218,0.6714685,0.6748224,0.6800923,0.6876231,0.6963099,0.705346,0.7154731,0.7285368,0.7483892,0.781788,0.8318365,0.8889374,0.936647,0.9664646,0.9818795,0.9900061,0.9946747,0.9980087,1.001672,1.004199,1.004857,1.005199,1.00318,1.000332,0.996971,0.9946241,0.9918269,0.9892809,0.9873,0.9854723,0.9848013,0.9866782,0.9906757,0.9973649,1.007313,1.019506,1.035601,1.055441,1.078214,1.103689,1.130378,1.156764,1.182121,1.205129,1.22373,1.240026,1.255869,1.272711,1.29354,1.318882,1.343531,1.364686,1.380228,1.39,1.395548,1.398823,1.398629,1.399497,1.398874,1.397832,1.396281,1.395338,1.393594,1.389906,1.388093,1.385693,1.381713,1.378902,1.375265,1.371648,1.3683,1.363976,1.360388,1.356539,1.352618,1.348388,1.344223,1.339963,1.336459,1.332532,1.328538,1.324874,1.32171,1.317808,1.314425,1.311157,1.308375,1.305693,1.303252,1.301222,1.299083,1.297902,1.296404,1.294405,1.293838,1.293124,1.292366,1.2916
M1-1000464,30.0625,,21-05-2024 11:29,9.1,203-P3-P-5.sam,203,P3,203-P3,Pulp,WVC,4.733333333,0.8172516,0.7983691,0.7788067,0.7622035,0.7532871,0.7512929,0.7589057,0.7782696,0.7980528,0.8088559,0.8129987,0.8145747,0.8139993,0.8102341,0.804101,0.7971812,0.7856682,0.7711743,0.7580213,0.7454834,0.7312572,0.7182354,0.708149,0.6996644,0.6943192,0.692031,0.6918721,0.6931129,0.6964231,0.7020791,0.709941,0.7188102,0.7282017,0.7388909,0.7523653,0.7723403,0.8062931,0.8579361,0.9150848,0.9621589,0.9922574,1.008062,1.015378,1.019882,1.023185,1.026519,1.029712,1.030446,1.030185,1.029318,1.026217,1.02295,1.021064,1.017956,1.015675,1.01389,1.011989,1.011974,1.013772,1.017981,1.024314,1.034381,1.04636,1.062685,1.081655,1.103705,1.128257,1.153624,1.178562,1.202272,1.223503,1.240946,1.255693,1.270454,1.285508,1.304499,1.326322,1.3487,1.367779,1.382564,1.390821,1.397127,1.398835,1.399422,1.399842,1.39962,1.398536,1.396633,1.396008,1.39356,1.390577,1.388705,1.386329,1.38229,1.379492,1.375855,1.372218,1.369148,1.364512,1.361225,1.357859,1.35339,1.349655,1.345455,1.341403,1.337884,1.334173,1.33059,1.327374,1.323712,1.32042,1.317433,1.314564,1.312178,1.30965,1.307399,1.305538,1.303595,1.3024,1.300931,1.29986,1.299323,1.298343,1.297396,1.296609
M1-1000464,30,,21-05-2024 11:29,9.1,203-P3-P-6.sam,203,P3,203-P3,Pulp,WVC,4.733333333,0.8156183,0.7975318,0.7783756,0.7606716,0.7518771,0.7511637,0.7570379,0.7765242,0.7987822,0.808681,0.8128639,0.81449,0.8144295,0.8090882,0.8037692,0.7967203,0.785409,0.7711744,0.7576834,0.7446589,0.7306876,0.7175435,0.7073006,0.6994939,0.6937737,0.6916047,0.6914191,0.6926134,0.6961656,0.701602,0.7094657,0.7188984,0.7281148,0.7382539,0.7517944,0.7719779,0.8061733,0.8574088,0.9150812,0.9622574,0.9924023,1.007786,1.015681,1.019814,1.023193,1.026908,1.030047,1.03079,1.030501,1.028497,1.025921,1.023578,1.021025,1.017986,1.015905,1.013586,1.011981,1.011978,1.014065,1.018233,1.024578,1.034641,1.04686,1.062935,1.082168,1.104008,1.129067,1.154183,1.179143,1.202877,1.224108,1.241624,1.257004,1.271081,1.286178,1.305178,1.327001,1.349066,1.368528,1.382917,1.391172,1.39711,1.398812,1.399786,1.40018,1.39952,1.398171,1.397316,1.396284,1.393888,1.390855,1.388608,1.385995,1.38226,1.379777,1.375551,1.372496,1.369144,1.365032,1.360933,1.35759,1.353636,1.34939,1.345941,1.341615,1.338106,1.334399,1.330799,1.327372,1.323926,1.320402,1.317844,1.314542,1.312379,1.310042,1.307584,1.30592,1.303788,1.302788,1.301479,1.299795,1.299441,1.298615,1.297818,1.296943
M1-1000464,29.75,,21-05-2024 11:31,9.1,203-P5-P-1.sam,203,P5,203-P5,Pulp,WVC,4.566666667,0.7725754,0.7534291,0.7328677,0.7145827,0.7032651,0.7005306,0.7023389,0.7187023,0.738588,0.7472113,0.7499508,0.7508732,0.7497578,0.7462521,0.7406964,0.7335757,0.7230331,0.7097911,0.6976098,0.6861531,0.6730633,0.661334,0.6524277,0.6453083,0.6401657,0.6383202,0.6382903,0.6396227,0.642628,0.6472967,0.6542696,0.6623107,0.6703,0.6793875,0.6914565,0.7095951,0.7404331,0.7871503,0.840048,0.8851252,0.9138265,0.9282735,0.9359514,0.9403863,0.9432147,0.9469505,0.9496412,0.9504405,0.9497044,0.94762,0.944575,0.9413361,0.9391018,0.9352651,0.9330662,0.9310744,0.928948,0.9284136,0.9296838,0.9336461,0.9397663,0.9487908,0.960771,0.9762785,0.9955774,1.017925,1.043098,1.070171,1.097402,1.123297,1.14729,1.167545,1.185835,1.20348,1.222367,1.247337,1.278147,1.311157,1.340771,1.3634,1.377317,1.386313,1.390395,1.392332,1.393599,1.393581,1.39239,1.391013,1.390874,1.387917,1.385052,1.382503,1.37989,1.375845,1.372723,1.368133,1.363786,1.359253,1.354464,1.349601,1.345122,1.339946,1.33424,1.32935,1.323456,1.318947,1.313587,1.308389,1.303863,1.298875,1.294083,1.289702,1.285865,1.282148,1.27822,1.274797,1.272341,1.269253,1.267179,1.265193,1.262832,1.261869,1.260529,1.258602,1.257456
M1-1000464,29.75,,21-05-2024 11:31,9.1,203-P5-P-2.sam,203,P5,203-P5,Pulp,WVC,4.566666667,0.7946196,0.7753331,0.7555633,0.7382624,0.7275233,0.7260655,0.72967,0.7467449,0.7667042,0.7761512,0.7797189,0.7803603,0.7789996,0.774498,0.7689976,0.762204,0.7514567,0.7378147,0.7255074,0.7134019,0.7000422,0.6874614,0.6779895,0.6708962,0.6658049,0.6634826,0.6632798,0.6646768,0.6678771,0.6726941,0.6798317,0.6882083,0.6968402,0.7062206,0.7185125,0.7376406,0.7695919,0.8180857,0.8727478,0.9189308,0.9481224,0.9629547,0.9707785,0.9753174,0.9785189,0.9816347,0.9843266,0.9847709,0.9843763,0.9822425,0.9795618,0.9765208,0.9740329,0.9705354,0.9681129,0.9660426,0.9641886,0.9635912,0.964969,0.9691432,0.9754541,0.9849281,0.997157,1.013186,1.032199,1.054999,1.080549,1.107059,1.133813,1.159474,1.182861,1.202658,1.219509,1.236141,1.253909,1.276474,1.304119,1.331429,1.355496,1.374155,1.385068,1.3917,1.39532,1.396728,1.39716,1.39702,1.395769,1.394566,1.393628,1.391358,1.388074,1.385806,1.383402,1.379248,1.376348,1.372552,1.368379,1.364874,1.360773,1.35604,1.352468,1.347361,1.342979,1.338631,1.333462,1.329449,1.325465,1.320646,1.317009,1.312618,1.308401,1.305083,1.301495,1.298323,1.295411,1.292442,1.290239,1.287635,1.286137,1.284236,1.282297,1.281395,1.280132,1.279317,1.277975
M1-1000464,29.75,,21-05-2024 11:32,9.1,203-P5-P-3.sam,203,P5,203-P5,Pulp,WVC,4.566666667,0.7954565,0.7751907,0.7555154,0.7385588,0.7281314,0.7260652,0.7296774,0.747509,0.7667041,0.7761335,0.7804303,0.7810398,0.7796394,0.7756464,0.7696702,0.7631215,0.7525235,0.7384692,0.7256041,0.7136624,0.7003899,0.688388,0.6788586,0.6713292,0.6659367,0.6645342,0.6641024,0.6652176,0.6682596,0.6730757,0.6805421,0.6888656,0.6973208,0.7068416,0.7192106,0.7381413,0.7699501,0.8182927,0.8736935,0.9196215,0.9488601,0.9636983,0.9715266,0.9759887,0.9788542,0.9820181,0.985083,0.9857846,0.9849986,0.9828854,0.9801676,0.9768301,0.9746463,0.971361,0.9686074,0.9663256,0.964698,0.9640923,0.9657177,0.9698294,0.9759013,0.9853721,0.9973894,1.013667,1.032675,1.055487,1.081056,1.107554,1.13407,1.159783,1.183458,1.203263,1.220105,1.236443,1.254233,1.27681,1.304473,1.331831,1.356273,1.374563,1.385489,1.392149,1.396121,1.397131,1.397557,1.397411,1.396521,1.394921,1.393981,1.39173,1.388726,1.386048,1.383097,1.379877,1.376647,1.372553,1.368955,1.364865,1.360786,1.35657,1.352459,1.347616,1.342975,1.338634,1.333701,1.329446,1.325234,1.321324,1.317011,1.312835,1.308618,1.305084,1.301701,1.298533,1.295206,1.29244,1.290038,1.287637,1.286137,1.284243,1.282506,1.281615,1.280343,1.279321,1.278302
M1-1000464,29.75,,21-05-2024 11:32,9.1,203-P5-P-4.sam,203,P5,203-P5,Pulp,WVC,4.566666667,0.7957555,0.7758937,0.7553992,0.7386659,0.7293543,0.7283654,0.7295038,0.7475187,0.7674692,0.7769016,0.7804399,0.7810395,0.780659,0.7763546,0.7712222,0.7635831,0.7523884,0.7391398,0.7265589,0.7142199,0.7007979,0.688432,0.6793332,0.6720291,0.6667032,0.6646174,0.6644625,0.6656476,0.6686587,0.6737849,0.6813524,0.6896769,0.6978117,0.7073745,0.7202113,0.7388864,0.770781,0.8190013,0.8740829,0.920235,0.9493108,0.9644543,0.9722769,0.9766585,0.9791911,0.9823717,0.9854304,0.9861329,0.9856981,0.9834985,0.9801582,0.977137,0.9749215,0.9713741,0.9689213,0.9668091,0.9650497,0.9648224,0.9661399,0.9698219,0.9764173,0.9861006,0.9982821,1.013898,1.033376,1.055726,1.081574,1.108113,1.134879,1.160313,1.183741,1.203564,1.220435,1.237113,1.255204,1.277444,1.30484,1.33257,1.356662,1.37495,1.385482,1.392151,1.396082,1.396717,1.397187,1.397409,1.395816,1.395315,1.393952,1.391727,1.38876,1.386429,1.383717,1.379863,1.376649,1.37285,1.369246,1.365424,1.360775,1.35657,1.352471,1.34814,1.343474,1.338877,1.333946,1.329918,1.325465,1.321098,1.317231,1.31327,1.30905,1.305301,1.301705,1.298529,1.295615,1.292845,1.290436,1.287834,1.286337,1.284444,1.282698,1.281617,1.280582,1.279574,1.278566
M1-1000464,29.75,,21-05-2024 11:32,9.1,203-P5-P-5.sam,203,P5,203-P5,Pulp,WVC,4.566666667,0.8143436,0.7953354,0.7753947,0.7579087,0.7488004,0.7482607,0.7514377,0.7702728,0.7918799,0.8007756,0.8055227,0.8061941,0.8047866,0.8006303,0.7946903,0.7878159,0.7766463,0.762374,0.7497368,0.7374459,0.7239078,0.7107642,0.7014394,0.6936191,0.6879797,0.6856223,0.68543,0.6867626,0.6900047,0.695142,0.7025701,0.7111161,0.7197458,0.7296972,0.7427971,0.7621083,0.795213,0.8449053,0.9014004,0.9480875,0.9777111,0.9926196,1.000595,1.004861,1.007989,1.010942,1.013849,1.014324,1.013791,1.011853,1.008808,1.005435,1.003587,1.000403,0.9975275,0.9958696,0.994045,0.9933811,0.9953501,0.9993747,1.006017,1.015545,1.027778,1.043666,1.063183,1.085624,1.110625,1.136933,1.162866,1.187342,1.210183,1.228544,1.244173,1.260313,1.276221,1.296739,1.321093,1.34478,1.365617,1.381483,1.390482,1.395894,1.399003,1.399543,1.39955,1.399329,1.39802,1.396756,1.395774,1.393797,1.390467,1.388418,1.38565,1.382055,1.379086,1.375822,1.37156,1.368267,1.364123,1.36065,1.356719,1.352542,1.348046,1.344352,1.339775,1.336113,1.332703,1.328171,1.324639,1.320985,1.317276,1.313851,1.310794,1.308326,1.305517,1.30289,1.301015,1.298559,1.297479,1.295841,1.294369,1.293527,1.292714,1.291697,1.290507
M1-1000464,29.6875,,21-05-2024 11:34,9.1,204-P1-P-1.sam,204,P1,204-P1,Pulp,WVC,4.833333333,0.7335182,0.7143952,0.6940116,0.6747871,0.6628144,0.6607816,0.6634501,0.6803232,0.698838,0.7075874,0.7108366,0.7120579,0.7098579,0.70476,0.699624,0.6929132,0.6816982,0.6678603,0.6556741,0.6433685,0.6297336,0.6175202,0.6082204,0.6008255,0.5953475,0.5936667,0.5936533,0.5947711,0.5975404,0.6023084,0.6092337,0.6173491,0.6254702,0.6346099,0.6470692,0.6656795,0.6971135,0.7450242,0.800252,0.8464827,0.8761639,0.8915839,0.8995371,0.9037173,0.9065412,0.9106382,0.9135548,0.9142458,0.913076,0.9111522,0.9076825,0.9041384,0.9015594,0.8975525,0.8945565,0.8922996,0.8902573,0.8894029,0.8905261,0.8942575,0.9006018,0.9102311,0.9224163,0.9387833,0.9584978,0.9819838,1.008841,1.037461,1.06636,1.094459,1.120621,1.142907,1.162652,1.181762,1.203606,1.231741,1.266696,1.303701,1.336853,1.362701,1.378144,1.387581,1.392073,1.395092,1.395973,1.396579,1.394624,1.393807,1.392878,1.390649,1.387385,1.385111,1.382749,1.378247,1.374807,1.370183,1.366056,1.361187,1.356061,1.350919,1.346396,1.340685,1.334953,1.329319,1.323178,1.317771,1.312003,1.3064,1.301069,1.296133,1.290161,1.285421,1.281044,1.276429,1.272354,1.268773,1.265222,1.262017,1.259544,1.256945,1.254579,1.253288,1.251632,1.250227,1.248683
M1-1000464,29.625,,21-05-2024 11:34,9.1,204-P1-P-2.sam,204,P1,204-P1,Pulp,WVC,4.833333333,0.7888277,0.7701365,0.7507104,0.7328603,0.7232734,0.7220394,0.7272368,0.7473138,0.7688349,0.7780668,0.7822969,0.7836003,0.7820934,0.7774149,0.7713507,0.7635183,0.751254,0.7365749,0.7235525,0.7105104,0.6958019,0.6825483,0.6722305,0.6637217,0.6583384,0.6556024,0.6553804,0.6568061,0.6601185,0.6652613,0.6726253,0.6815495,0.6905668,0.7008544,0.7146934,0.7349162,0.768927,0.8208022,0.8794847,0.9287098,0.959754,0.9751139,0.9834597,0.9878418,0.9909048,0.9942146,0.9974406,0.9985198,0.997385,0.995562,0.992131,0.9889639,0.9864397,0.9830221,0.9800943,0.9776164,0.9755004,0.9750639,0.9769489,0.9810653,0.9875264,0.9976225,1.010336,1.027028,1.047269,1.070673,1.096962,1.124177,1.151585,1.177603,1.200998,1.220699,1.237377,1.253413,1.270897,1.292242,1.317814,1.342493,1.364383,1.380977,1.390406,1.396241,1.398508,1.399476,1.399855,1.4,1.39796,1.397071,1.396405,1.393726,1.390773,1.388656,1.385957,1.382273,1.379348,1.375808,1.372113,1.368533,1.364348,1.360638,1.356698,1.352785,1.348265,1.344307,1.339712,1.335832,1.331975,1.327895,1.324183,1.32052,1.316808,1.313372,1.310331,1.30726,1.304625,1.301797,1.299711,1.297284,1.295965,1.294274,1.292762,1.292154,1.290799,1.289395,1.288023
M1-1000464,29.6875,,21-05-2024 11:34,9.1,204-P1-P-3.sam,204,P1,204-P1,Pulp,WVC,4.833333333,0.7897974,0.7715147,0.7518635,0.7338826,0.7241956,0.7229042,0.7281352,0.7482052,0.7696882,0.7797508,0.7831556,0.7843587,0.7828298,0.7780916,0.7724422,0.7646434,0.7526957,0.7380739,0.7249212,0.7117522,0.6972622,0.6840214,0.6738731,0.6654798,0.6594089,0.6569287,0.6567162,0.6577322,0.6608889,0.6661704,0.6741574,0.6830941,0.6919373,0.7021788,0.7157425,0.736216,0.7702711,0.8223021,0.8811142,0.929837,0.9604468,0.9765298,0.9843162,0.9890244,0.9920495,0.9953333,0.9985009,0.9992607,0.9984235,0.9959118,0.9931433,0.9902168,0.9872987,0.9836133,0.980948,0.978503,0.9768037,0.9763202,0.9779059,0.9820378,0.9884718,0.9985884,1.011301,1.028007,1.048261,1.07169,1.098074,1.125541,1.152672,1.178216,1.201936,1.221324,1.237723,1.25409,1.271221,1.292261,1.317881,1.342931,1.364811,1.381033,1.390458,1.396314,1.39937,1.399901,1.399891,1.399659,1.398362,1.397108,1.396448,1.393752,1.390749,1.388413,1.386322,1.382644,1.379978,1.375812,1.371837,1.368544,1.364371,1.360641,1.356705,1.352536,1.348284,1.344325,1.339503,1.336091,1.331986,1.327917,1.324411,1.320531,1.316823,1.313395,1.310351,1.307481,1.304447,1.302039,1.300156,1.297507,1.296212,1.294741,1.292838,1.292286,1.291037,1.289804,1.288853
M1-1000464,29.6875,,21-05-2024 11:34,9.1,204-P1-P-4.sam,204,P1,204-P1,Pulp,WVC,4.833333333,0.7919779,0.7735673,0.753709,0.7358652,0.7266004,0.7252121,0.7303985,0.7497365,0.7720029,0.7812507,0.785324,0.7864196,0.7853242,0.7806165,0.7742727,0.7666721,0.7544161,0.7391025,0.7261245,0.7127166,0.6983265,0.6848473,0.6747715,0.666714,0.6606266,0.6583856,0.6579999,0.6589648,0.6622517,0.667663,0.6754276,0.684209,0.6933515,0.7036242,0.7167866,0.7370946,0.7716095,0.8234672,0.8824254,0.9314115,0.9621391,0.9778599,0.9860861,0.9901869,0.9935586,0.9968027,0.9998723,1.000323,0.9998468,0.9979256,0.9947025,0.9911438,0.9885282,0.9850653,0.9823336,0.9798909,0.978321,0.9775869,0.9791384,0.9832671,0.9899247,1.000039,1.012975,1.029432,1.04946,1.072717,1.099374,1.126619,1.153844,1.179714,1.203416,1.222298,1.239315,1.255071,1.272589,1.293637,1.318943,1.343719,1.365981,1.381466,1.391324,1.397105,1.399428,1.400718,1.400274,1.400046,1.398741,1.397444,1.396443,1.394463,1.391165,1.38936,1.386266,1.382644,1.379978,1.375814,1.37242,1.368828,1.364924,1.360914,1.357237,1.352797,1.348792,1.344571,1.339747,1.336332,1.332457,1.328377,1.324864,1.320975,1.317479,1.31383,1.310775,1.308111,1.305071,1.302655,1.300565,1.298121,1.296821,1.295154,1.293442,1.292512,1.291761,1.290314,1.289462
M1-1000464,29.625,,21-05-2024 11:34,9.1,204-P1-P-5.sam,204,P1,204-P1,Pulp,WVC,4.833333333,0.8059877,0.7876529,0.7691855,0.751613,0.7418442,0.741613,0.7464988,0.7668064,0.787669,0.7972679,0.8021577,0.8038579,0.8030996,0.7981179,0.7916541,0.7844746,0.7725118,0.758327,0.7450466,0.7317129,0.7172448,0.7036999,0.6931226,0.6852039,0.6792858,0.6768446,0.6765582,0.677691,0.6811457,0.6863076,0.6938494,0.7031457,0.712565,0.7227561,0.7363049,0.7568568,0.7911758,0.8430889,0.9012018,0.9495119,0.9801435,0.9953392,1.003278,1.007517,1.010664,1.013985,1.017175,1.017905,1.016919,1.015272,1.012459,1.008922,1.00699,1.003103,1.000356,0.9983392,0.9965172,0.9960074,0.9979354,1.002134,1.00854,1.018557,1.031302,1.047671,1.067041,1.090161,1.11579,1.142586,1.168732,1.193649,1.216094,1.234942,1.250665,1.265979,1.282689,1.302564,1.325763,1.349289,1.369071,1.383843,1.392484,1.397511,1.399767,1.400671,1.40063,1.400376,1.399086,1.397767,1.396737,1.394474,1.39172,1.389013,1.386958,1.383221,1.38057,1.376703,1.37328,1.369959,1.365737,1.362014,1.35857,1.354346,1.350061,1.346571,1.342412,1.338718,1.335278,1.331123,1.328043,1.324313,1.320976,1.317488,1.314836,1.311912,1.309443,1.307209,1.305078,1.302827,1.301525,1.300272,1.298463,1.29776,1.296742,1.295322,1.294115
M1-1000464,29.75,,21-05-2024 11:35,9.1,204-P1-P-6.sam,204,P1,204-P1,Pulp,WVC,4.833333333,0.809002,0.7898255,0.7708198,0.7539854,0.7448386,0.7459473,0.7499084,0.7694796,0.7910709,0.8015783,0.8054268,0.8075954,0.8055987,0.8012871,0.7948424,0.7874196,0.7753482,0.760511,0.7476117,0.7344272,0.7196919,0.7065456,0.6966709,0.688247,0.6822008,0.679711,0.6792889,0.6805021,0.6840042,0.6890866,0.6967638,0.7059745,0.7152014,0.7255408,0.7392648,0.7597352,0.7939117,0.8457907,0.9041438,0.9528122,0.9829681,0.9983413,1.00649,1.01041,1.013874,1.017044,1.01989,1.020555,1.019827,1.017761,1.015193,1.011544,1.009188,1.005878,1.003307,1.001251,0.9998067,0.9992084,1.001032,1.004944,1.011559,1.021578,1.034055,1.050265,1.070171,1.093058,1.118555,1.145163,1.171422,1.196143,1.218623,1.23663,1.252681,1.267691,1.284113,1.304053,1.326935,1.350142,1.369967,1.384357,1.392615,1.397939,1.399867,1.400773,1.400754,1.400898,1.399112,1.397514,1.396846,1.394147,1.391497,1.389464,1.387279,1.383309,1.380611,1.376717,1.373312,1.370258,1.365794,1.362569,1.358858,1.354641,1.350858,1.346854,1.342474,1.338996,1.335301,1.331632,1.328277,1.324782,1.321226,1.318191,1.315101,1.312564,1.310133,1.307475,1.305782,1.303699,1.302419,1.30081,1.299251,1.298458,1.297488,1.296881,1.29578
M1-1000464,29.625,,21-05-2024 11:37,9.1,204-P2-P-2.sam,204,P2,204-P2,Pulp,WVC,4.633333333,0.7551602,0.7352893,0.7155913,0.6969181,0.6849169,0.6825998,0.6845629,0.7014104,0.7211303,0.7301425,0.7340279,0.735369,0.7334717,0.7286077,0.7231568,0.7167217,0.70634,0.6923944,0.6805832,0.6684508,0.6551636,0.6436617,0.6334549,0.6261252,0.6213689,0.619321,0.6192176,0.6206213,0.6233112,0.6281967,0.6352689,0.6432202,0.6516482,0.6607958,0.6726027,0.6909628,0.7224725,0.7693183,0.8233906,0.8690749,0.8981704,0.9134552,0.9212286,0.9262168,0.9290063,0.9326441,0.9359773,0.9366052,0.9357048,0.9343096,0.930993,0.9281756,0.9248904,0.9217541,0.9182945,0.9160216,0.9142727,0.9138473,0.9151137,0.918563,0.92459,0.9336421,0.9462807,0.9620035,0.9814087,1.004088,1.029852,1.057484,1.085343,1.112397,1.137643,1.15912,1.177405,1.195538,1.216808,1.242185,1.274572,1.309286,1.340485,1.36391,1.378353,1.386356,1.39178,1.39427,1.394298,1.394642,1.394166,1.392652,1.391761,1.388994,1.386439,1.383782,1.380539,1.377105,1.373422,1.369203,1.365008,1.360178,1.355615,1.350825,1.346096,1.340517,1.335149,1.330104,1.324444,1.319071,1.313864,1.308108,1.302901,1.298755,1.293439,1.288427,1.284714,1.280474,1.276322,1.273328,1.270056,1.267323,1.265072,1.262128,1.260055,1.258718,1.256842,1.254695,1.253392
M1-1000464,29.6875,,21-05-2024 11:37,9.1,204-P2-P-3.sam,204,P2,204-P2,Pulp,WVC,4.633333333,0.783403,0.7636273,0.7444636,0.7256083,0.7151858,0.7132192,0.7168356,0.7351817,0.7564243,0.7655001,0.7691591,0.7705485,0.7690874,0.7639546,0.7587748,0.751005,0.7403499,0.7256272,0.7127233,0.7003325,0.686884,0.6741201,0.6638097,0.6562639,0.6514177,0.6487213,0.6484077,0.6498232,0.6528218,0.6578447,0.665129,0.6735997,0.6822633,0.6918099,0.7046385,0.7238822,0.7563123,0.8059875,0.8624223,0.9097291,0.9398844,0.9555056,0.9636901,0.9687196,0.9718783,0.9755424,0.9780588,0.9792951,0.9780425,0.9761646,0.9731825,0.9697916,0.9667421,0.963527,0.9607418,0.9579821,0.9560347,0.9553961,0.9568415,0.9607916,0.9672829,0.9764931,0.9894714,1.005839,1.025569,1.048616,1.074756,1.102961,1.130512,1.157495,1.181741,1.202384,1.220065,1.237003,1.255731,1.279071,1.307068,1.335124,1.359941,1.377549,1.387506,1.393831,1.397581,1.399215,1.39831,1.398156,1.397576,1.395956,1.394625,1.392134,1.389514,1.38715,1.384108,1.381224,1.378003,1.374254,1.37052,1.366685,1.36255,1.358412,1.354854,1.350057,1.345476,1.341209,1.336741,1.332017,1.327914,1.32339,1.319436,1.315645,1.311265,1.30747,1.304396,1.300813,1.297435,1.295094,1.292407,1.28993,1.28829,1.286008,1.283902,1.28294,1.281465,1.280164,1.27807
M1-1000464,29.75,,21-05-2024 11:37,9.1,204-P2-P-4.sam,204,P2,204-P2,Pulp,WVC,4.633333333,0.7836697,0.7645852,0.7449579,0.7264307,0.7153038,0.713307,0.7161881,0.7345523,0.7550101,0.7656488,0.7692757,0.7706202,0.7686508,0.7634906,0.7573317,0.7502378,0.7395629,0.725386,0.712813,0.700079,0.6864445,0.6743419,0.6636765,0.6561862,0.6512405,0.6484283,0.6482555,0.6497113,0.6525352,0.6576233,0.6645696,0.6730514,0.6821782,0.6917525,0.7042747,0.723417,0.7560795,0.8056108,0.8618735,0.9094244,0.9395657,0.9551116,0.9628457,0.9672909,0.970437,0.9738858,0.9770359,0.9779755,0.9767391,0.9745863,0.9716758,0.9686247,0.9652975,0.9621254,0.9591488,0.956445,0.9545999,0.9541897,0.9556502,0.9593886,0.9659227,0.9753709,0.988084,1.004242,1.024155,1.046947,1.073242,1.100885,1.128636,1.15561,1.180601,1.200917,1.218822,1.235468,1.254809,1.278113,1.306378,1.334058,1.359637,1.377589,1.387129,1.393392,1.396816,1.398859,1.398389,1.398611,1.397596,1.396382,1.395026,1.392474,1.389517,1.387229,1.384414,1.380943,1.377718,1.373963,1.370537,1.366691,1.362574,1.358397,1.354322,1.349555,1.345241,1.340978,1.336281,1.331563,1.327925,1.323188,1.318541,1.314989,1.310846,1.306857,1.303576,1.299988,1.29664,1.2941,1.291631,1.288942,1.287316,1.284868,1.283142,1.281975,1.280733,1.278827,1.277747
M1-1000464,29.75,,21-05-2024 11:38,9.1,204-P2-P-5.sam,204,P2,204-P2,Pulp,WVC,4.633333333,0.8053312,0.7857299,0.7656212,0.7475972,0.7372712,0.7349391,0.7398022,0.7582214,0.7795776,0.7897859,0.7937593,0.7959373,0.7933158,0.7888523,0.7834021,0.7759386,0.7649547,0.7510559,0.7379431,0.7249649,0.7118582,0.699077,0.6881247,0.6806076,0.6753374,0.6725596,0.6724064,0.6738518,0.6767751,0.6818847,0.6896085,0.6984692,0.7072779,0.7169325,0.7297665,0.7493795,0.7824742,0.8323542,0.8886226,0.9357591,0.9652536,0.9811419,0.9887049,0.9929914,0.9965068,1.000211,1.003489,1.003958,1.002999,1.001112,0.9985667,0.9951878,0.9918542,0.9886465,0.9860502,0.9832675,0.9818429,0.9816029,0.9829151,0.9870772,0.9934316,1.002715,1.015263,1.031435,1.050883,1.07348,1.098601,1.125757,1.152802,1.177816,1.20113,1.221116,1.237653,1.253404,1.271514,1.292969,1.318793,1.343684,1.365791,1.380904,1.390445,1.395065,1.398466,1.400099,1.399965,1.398956,1.398351,1.396355,1.395065,1.393218,1.390194,1.387851,1.384778,1.382218,1.378942,1.375456,1.3717,1.368121,1.364254,1.360341,1.357279,1.352169,1.348571,1.344741,1.340693,1.336113,1.332629,1.328702,1.324182,1.321201,1.317387,1.31352,1.310807,1.307949,1.305144,1.302551,1.300634,1.29809,1.296677,1.29446,1.292754,1.291703,1.290603,1.289487,1.288248
M1-1000464,29.75,,21-05-2024 11:38,9.1,204-P2-P-6.sam,204,P2,204-P2,Pulp,WVC,4.633333333,0.8063821,0.7872794,0.7676689,0.7493991,0.7389272,0.7365357,0.7421698,0.7590002,0.7819536,0.7913466,0.7952996,0.7966659,0.7945732,0.7895692,0.7844524,0.7770519,0.7664319,0.7518218,0.7386543,0.7261952,0.7125099,0.6996307,0.6894023,0.6817778,0.6762075,0.6739499,0.6739177,0.6753239,0.6778548,0.6829939,0.6906943,0.6992329,0.7080538,0.7178223,0.7308384,0.7504513,0.7835034,0.8333433,0.8899054,0.9368488,0.9664094,0.9823221,0.9897872,0.9937329,0.9973193,1.00119,1.003591,1.00468,1.004081,1.002467,0.999514,0.9958218,0.9928006,0.9897558,0.9863567,0.9840645,0.9823673,0.9821382,0.9839618,0.9877914,0.9941793,1.00368,1.015974,1.032189,1.051874,1.074234,1.09937,1.126217,1.152893,1.17903,1.20199,1.221433,1.238337,1.254389,1.272176,1.293646,1.319172,1.344472,1.366608,1.38172,1.390897,1.395904,1.398853,1.400099,1.399972,1.399339,1.398333,1.396762,1.395786,1.393567,1.390849,1.388158,1.3851,1.382531,1.379245,1.375459,1.372579,1.368397,1.36454,1.360865,1.357005,1.352695,1.348823,1.344992,1.340939,1.336356,1.333102,1.328704,1.324409,1.321425,1.317603,1.31417,1.311242,1.308378,1.304936,1.302968,1.300633,1.298505,1.297088,1.294873,1.293166,1.291922,1.290827,1.289454,1.287962
M1-1000464,30.0625,,21-05-2024 11:40,9.1,204-P3-P-1.sam,204,P3,204-P3,Pulp,WVC,4.9,0.8280237,0.8091992,0.7909738,0.772136,0.7609106,0.7573776,0.7612548,0.778988,0.8002577,0.8081079,0.8118579,0.8136293,0.812499,0.8096868,0.8041043,0.7976723,0.7881958,0.7748032,0.7633184,0.752097,0.7397248,0.7278332,0.7182938,0.7114069,0.7067944,0.7046596,0.7048094,0.7063291,0.7092404,0.7145417,0.7217554,0.7300373,0.7388068,0.7481139,0.7598727,0.7782286,0.8094161,0.8557881,0.9080582,0.9518315,0.9793246,0.9939118,1.001578,1.005964,1.008847,1.011855,1.015,1.016407,1.015095,1.014353,1.011594,1.009144,1.006514,1.004568,1.00209,1.000106,0.9989595,0.9989737,1.00064,1.004428,1.010721,1.019724,1.031484,1.046557,1.0649,1.085954,1.109636,1.134552,1.159586,1.1834,1.205412,1.223703,1.239593,1.254742,1.271513,1.291991,1.316823,1.342799,1.365741,1.38209,1.391611,1.396411,1.399994,1.40159,1.40109,1.401239,1.400411,1.398779,1.397021,1.394754,1.392286,1.389424,1.386733,1.383703,1.380578,1.376989,1.373234,1.369861,1.365482,1.361702,1.358146,1.353525,1.349402,1.345088,1.340846,1.336449,1.333157,1.328587,1.324647,1.321257,1.317027,1.313417,1.310713,1.307571,1.304454,1.302265,1.299979,1.297784,1.296454,1.294351,1.292519,1.29189,1.290519,1.289231,1.287961
M1-1000464,30.0625,,21-05-2024 11:40,9.1,204-P3-P-2.sam,204,P3,204-P3,Pulp,WVC,4.9,0.8467813,0.8268317,0.8081324,0.7910993,0.7804977,0.7787371,0.7831062,0.8009122,0.8206196,0.8322372,0.8357846,0.8370458,0.8360887,0.8321695,0.827253,0.8203914,0.8108649,0.7978377,0.7856712,0.7738926,0.7607654,0.7490553,0.7395363,0.7320035,0.7276037,0.7251344,0.7249017,0.7265068,0.7297878,0.7353972,0.7426191,0.7510149,0.7600854,0.769741,0.7822049,0.8008401,0.8325232,0.880325,0.9334677,0.977933,1.005872,1.020107,1.027143,1.031864,1.034125,1.038186,1.040844,1.042172,1.041556,1.040098,1.037623,1.035654,1.032804,1.03096,1.028405,1.026219,1.025375,1.02554,1.027967,1.031386,1.037871,1.046967,1.058959,1.073709,1.092227,1.113209,1.136257,1.160959,1.185457,1.208553,1.229427,1.246384,1.2614,1.274848,1.289937,1.308422,1.330125,1.35056,1.369965,1.383596,1.391149,1.395985,1.399542,1.400754,1.399489,1.400063,1.398872,1.397303,1.395616,1.393677,1.390634,1.388415,1.385118,1.382457,1.379348,1.375191,1.372069,1.368433,1.364377,1.360898,1.357623,1.353274,1.349414,1.345599,1.341593,1.33766,1.334581,1.330904,1.327154,1.324391,1.32121,1.317771,1.315459,1.312673,1.30993,1.308349,1.306426,1.304425,1.303728,1.301865,1.300603,1.299784,1.298871,1.297516,1.296687
M1-1000464,30.0625,,21-05-2024 11:40,9.1,204-P3-P-3.sam,204,P3,204-P3,Pulp,WVC,4.9,0.8545141,0.8357675,0.8169068,0.799324,0.789029,0.7875793,0.7917953,0.8105885,0.8329531,0.8426543,0.8457091,0.8472395,0.8464597,0.8426839,0.8377603,0.8308847,0.8208918,0.807102,0.7955594,0.7836602,0.7705853,0.7586351,0.7484717,0.741451,0.7368838,0.7345004,0.7343521,0.7359553,0.7393054,0.7445917,0.7520626,0.7607865,0.7698432,0.7794376,0.7920349,0.8115763,0.8433818,0.8912285,0.9450561,0.9895822,1.017502,1.032313,1.039492,1.043797,1.046243,1.050125,1.05286,1.053631,1.0531,1.052108,1.049531,1.046869,1.044688,1.042788,1.040473,1.038467,1.037473,1.037349,1.039553,1.043296,1.049608,1.058907,1.070964,1.086546,1.10415,1.125644,1.148153,1.172947,1.196905,1.219391,1.239681,1.25679,1.270648,1.283946,1.299132,1.3163,1.336526,1.356802,1.374805,1.387418,1.395014,1.399337,1.401662,1.403238,1.401902,1.402401,1.400748,1.399199,1.398118,1.395064,1.392695,1.390427,1.387386,1.384647,1.381193,1.377893,1.3747,1.371015,1.367454,1.363348,1.36005,1.356179,1.352769,1.349141,1.345306,1.3413,1.3384,1.334641,1.331292,1.328693,1.325444,1.322171,1.320045,1.317405,1.315042,1.313222,1.311484,1.309656,1.308761,1.306924,1.30561,1.3053,1.304214,1.303281,1.302263
M1-1000464,30,,21-05-2024 11:40,9.1,204-P3-P-4.sam,204,P3,204-P3,Pulp,WVC,4.9,0.8512476,0.8323565,0.8141841,0.7961322,0.7858653,0.7839149,0.7890462,0.8068604,0.8266397,0.8380597,0.8421929,0.8439775,0.8427393,0.8377174,0.8334858,0.8270963,0.8167982,0.8035942,0.7916111,0.7803335,0.7675346,0.755218,0.7451196,0.738301,0.733628,0.7310066,0.73103,0.7328137,0.7358386,0.7414684,0.7489568,0.757212,0.7661699,0.7759451,0.7886608,0.8076754,0.8390002,0.8871918,0.9408275,0.9849669,1.012796,1.028033,1.03547,1.039461,1.041954,1.04552,1.048452,1.049987,1.04874,1.047141,1.04519,1.043306,1.040546,1.038476,1.036323,1.034351,1.033045,1.033281,1.03526,1.039108,1.045489,1.054782,1.066814,1.082149,1.100461,1.121082,1.144296,1.168716,1.193115,1.215494,1.236002,1.253401,1.267848,1.280746,1.296262,1.313763,1.334985,1.355188,1.373544,1.386503,1.394089,1.39849,1.401194,1.402777,1.401807,1.401538,1.400351,1.398816,1.398118,1.395008,1.392317,1.390078,1.38739,1.384606,1.38148,1.377886,1.374683,1.370717,1.367162,1.363632,1.360301,1.356151,1.352234,1.348869,1.34503,1.34128,1.338149,1.334383,1.33083,1.328002,1.324754,1.321706,1.319366,1.31675,1.314156,1.312556,1.310604,1.309005,1.30809,1.306215,1.304657,1.304251,1.303238,1.301851,1.300866
M1-1000464,30,,21-05-2024 11:40,9.1,204-P3-P-5.sam,204,P3,204-P3,Pulp,WVC,4.9,0.8754431,0.8578144,0.8402269,0.822922,0.8130429,0.8113461,0.8170162,0.8368711,0.8576633,0.87048,0.8741428,0.8750287,0.8749205,0.8705829,0.8657424,0.8585272,0.8489587,0.8350133,0.8227406,0.8105479,0.797354,0.7853048,0.7747217,0.7672218,0.7624021,0.7600077,0.7598994,0.7615034,0.7645079,0.7702954,0.7783052,0.7872426,0.796748,0.8067732,0.8195704,0.8390857,0.8721015,0.9209153,0.9749671,1.019615,1.047269,1.061678,1.068416,1.07187,1.075174,1.078852,1.081138,1.082131,1.081608,1.080277,1.078375,1.075851,1.074183,1.071739,1.070373,1.068052,1.067382,1.067332,1.069809,1.073829,1.080554,1.089315,1.101383,1.116375,1.134007,1.15403,1.176165,1.198743,1.221373,1.242565,1.261039,1.276213,1.288967,1.300299,1.313895,1.328734,1.346666,1.363749,1.379571,1.390298,1.397504,1.401063,1.403678,1.404433,1.403053,1.403519,1.401857,1.400263,1.399169,1.396455,1.394001,1.391347,1.388393,1.386195,1.382712,1.379393,1.37616,1.373028,1.369406,1.365571,1.362752,1.358806,1.355343,1.351669,1.348277,1.344709,1.341999,1.338624,1.335003,1.332567,1.329468,1.327036,1.324875,1.322837,1.320405,1.319213,1.317424,1.316018,1.315333,1.313705,1.312358,1.312408,1.311339,1.310099,1.309237
